"# Channel 1"
"# Trace 2"
Frequency, Formatted Data, Formatted Data
+4.95769074900E+006, -2.44112061455E+001, +0.00000000000E+000
+4.95769168650E+006, -2.43655907732E+001, +0.00000000000E+000
+4.95769262400E+006, -2.43955530857E+001, +0.00000000000E+000
+4.95769356150E+006, -2.44203319853E+001, +0.00000000000E+000
+4.95769449900E+006, -2.44458795182E+001, +0.00000000000E+000
+4.95769543650E+006, -2.44700354280E+001, +0.00000000000E+000
+4.95769637400E+006, -2.44962072971E+001, +0.00000000000E+000
+4.95769731150E+006, -2.45202654284E+001, +0.00000000000E+000
+4.95769824900E+006, -2.45453485111E+001, +0.00000000000E+000
+4.95769918650E+006, -2.45714908531E+001, +0.00000000000E+000
+4.95770012400E+006, -2.45950790675E+001, +0.00000000000E+000
+4.95770106150E+006, -2.46211670569E+001, +0.00000000000E+000
+4.95770199900E+006, -2.46475632810E+001, +0.00000000000E+000
+4.95770293650E+006, -2.46710375346E+001, +0.00000000000E+000
+4.95770387400E+006, -2.46955634925E+001, +0.00000000000E+000
+4.95770481150E+006, -2.47217410003E+001, +0.00000000000E+000
+4.95770574900E+006, -2.47461177123E+001, +0.00000000000E+000
+4.95770668650E+006, -2.47711041804E+001, +0.00000000000E+000
+4.95770762400E+006, -2.47947784237E+001, +0.00000000000E+000
+4.95770856150E+006, -2.48187593392E+001, +0.00000000000E+000
+4.95770949900E+006, -2.48435522234E+001, +0.00000000000E+000
+4.95771043650E+006, -2.48698852229E+001, +0.00000000000E+000
+4.95771137400E+006, -2.48929377858E+001, +0.00000000000E+000
+4.95771231150E+006, -2.49171164234E+001, +0.00000000000E+000
+4.95771324900E+006, -2.49411924417E+001, +0.00000000000E+000
+4.95771418650E+006, -2.49642297951E+001, +0.00000000000E+000
+4.95771512400E+006, -2.49874422396E+001, +0.00000000000E+000
+4.95771606150E+006, -2.50096840386E+001, +0.00000000000E+000
+4.95771699900E+006, -2.50345014338E+001, +0.00000000000E+000
+4.95771793650E+006, -2.50576177783E+001, +0.00000000000E+000
+4.95771887400E+006, -2.50787056348E+001, +0.00000000000E+000
+4.95771981150E+006, -2.51035536608E+001, +0.00000000000E+000
+4.95772074900E+006, -2.51284521816E+001, +0.00000000000E+000
+4.95772168650E+006, -2.51528559902E+001, +0.00000000000E+000
+4.95772262400E+006, -2.51790716271E+001, +0.00000000000E+000
+4.95772356150E+006, -2.52048711336E+001, +0.00000000000E+000
+4.95772449900E+006, -2.52296817347E+001, +0.00000000000E+000
+4.95772543650E+006, -2.52557279640E+001, +0.00000000000E+000
+4.95772637400E+006, -2.52798643321E+001, +0.00000000000E+000
+4.95772731150E+006, -2.53060780438E+001, +0.00000000000E+000
+4.95772824900E+006, -2.53306448245E+001, +0.00000000000E+000
+4.95772918650E+006, -2.53566922302E+001, +0.00000000000E+000
+4.95773012400E+006, -2.53788850239E+001, +0.00000000000E+000
+4.95773106150E+006, -2.54015908909E+001, +0.00000000000E+000
+4.95773199900E+006, -2.54232883212E+001, +0.00000000000E+000
+4.95773293650E+006, -2.54488210360E+001, +0.00000000000E+000
+4.95773387400E+006, -2.54743676025E+001, +0.00000000000E+000
+4.95773481150E+006, -2.55030003825E+001, +0.00000000000E+000
+4.95773574900E+006, -2.55288842860E+001, +0.00000000000E+000
+4.95773668650E+006, -2.55558645932E+001, +0.00000000000E+000
+4.95773762400E+006, -2.55834352674E+001, +0.00000000000E+000
+4.95773856150E+006, -2.56096933402E+001, +0.00000000000E+000
+4.95773949900E+006, -2.56374662940E+001, +0.00000000000E+000
+4.95774043650E+006, -2.56634214684E+001, +0.00000000000E+000
+4.95774137400E+006, -2.56901345889E+001, +0.00000000000E+000
+4.95774231150E+006, -2.57178752454E+001, +0.00000000000E+000
+4.95774324900E+006, -2.57466511072E+001, +0.00000000000E+000
+4.95774418650E+006, -2.57748483545E+001, +0.00000000000E+000
+4.95774512400E+006, -2.58027637565E+001, +0.00000000000E+000
+4.95774606150E+006, -2.58312130078E+001, +0.00000000000E+000
+4.95774699900E+006, -2.58597708364E+001, +0.00000000000E+000
+4.95774793650E+006, -2.58883233958E+001, +0.00000000000E+000
+4.95774887400E+006, -2.59167001031E+001, +0.00000000000E+000
+4.95774981150E+006, -2.59458571532E+001, +0.00000000000E+000
+4.95775074900E+006, -2.59755823402E+001, +0.00000000000E+000
+4.95775168650E+006, -2.60035271922E+001, +0.00000000000E+000
+4.95775262400E+006, -2.60316690104E+001, +0.00000000000E+000
+4.95775356150E+006, -2.60613672228E+001, +0.00000000000E+000
+4.95775449900E+006, -2.60908961553E+001, +0.00000000000E+000
+4.95775543650E+006, -2.61203897650E+001, +0.00000000000E+000
+4.95775637400E+006, -2.61483238061E+001, +0.00000000000E+000
+4.95775731150E+006, -2.61759606833E+001, +0.00000000000E+000
+4.95775824900E+006, -2.62068514022E+001, +0.00000000000E+000
+4.95775918650E+006, -2.62355321283E+001, +0.00000000000E+000
+4.95776012400E+006, -2.62648514487E+001, +0.00000000000E+000
+4.95776106150E+006, -2.62930764789E+001, +0.00000000000E+000
+4.95776199900E+006, -2.63222347794E+001, +0.00000000000E+000
+4.95776293650E+006, -2.63515110574E+001, +0.00000000000E+000
+4.95776387400E+006, -2.63793825904E+001, +0.00000000000E+000
+4.95776481150E+006, -2.64096445404E+001, +0.00000000000E+000
+4.95776574900E+006, -2.64376323157E+001, +0.00000000000E+000
+4.95776668650E+006, -2.64678070353E+001, +0.00000000000E+000
+4.95776762400E+006, -2.64969268337E+001, +0.00000000000E+000
+4.95776856150E+006, -2.65277957451E+001, +0.00000000000E+000
+4.95776949900E+006, -2.65574112167E+001, +0.00000000000E+000
+4.95777043650E+006, -2.65856953401E+001, +0.00000000000E+000
+4.95777137400E+006, -2.66174593883E+001, +0.00000000000E+000
+4.95777231150E+006, -2.66472100213E+001, +0.00000000000E+000
+4.95777324900E+006, -2.66766360336E+001, +0.00000000000E+000
+4.95777418650E+006, -2.67077289809E+001, +0.00000000000E+000
+4.95777512400E+006, -2.67388836698E+001, +0.00000000000E+000
+4.95777606150E+006, -2.67701941167E+001, +0.00000000000E+000
+4.95777699900E+006, -2.68013976535E+001, +0.00000000000E+000
+4.95777793650E+006, -2.68331822805E+001, +0.00000000000E+000
+4.95777887400E+006, -2.68646126493E+001, +0.00000000000E+000
+4.95777981150E+006, -2.68959132558E+001, +0.00000000000E+000
+4.95778074900E+006, -2.69295799409E+001, +0.00000000000E+000
+4.95778168650E+006, -2.69590915730E+001, +0.00000000000E+000
+4.95778262400E+006, -2.69933872163E+001, +0.00000000000E+000
+4.95778356150E+006, -2.70268852404E+001, +0.00000000000E+000
+4.95778449900E+006, -2.70584059796E+001, +0.00000000000E+000
+4.95778543650E+006, -2.70901386503E+001, +0.00000000000E+000
+4.95778637400E+006, -2.71246916461E+001, +0.00000000000E+000
+4.95778731150E+006, -2.71577037847E+001, +0.00000000000E+000
+4.95778824900E+006, -2.71908776344E+001, +0.00000000000E+000
+4.95778918650E+006, -2.72244521193E+001, +0.00000000000E+000
+4.95779012400E+006, -2.72561455274E+001, +0.00000000000E+000
+4.95779106150E+006, -2.72893694499E+001, +0.00000000000E+000
+4.95779199900E+006, -2.73226457943E+001, +0.00000000000E+000
+4.95779293650E+006, -2.73555722561E+001, +0.00000000000E+000
+4.95779387400E+006, -2.73901012387E+001, +0.00000000000E+000
+4.95779481150E+006, -2.74208289631E+001, +0.00000000000E+000
+4.95779574900E+006, -2.74556878654E+001, +0.00000000000E+000
+4.95779668650E+006, -2.74908010136E+001, +0.00000000000E+000
+4.95779762400E+006, -2.75254199604E+001, +0.00000000000E+000
+4.95779856150E+006, -2.75566735342E+001, +0.00000000000E+000
+4.95779949900E+006, -2.75922281399E+001, +0.00000000000E+000
+4.95780043650E+006, -2.76254436515E+001, +0.00000000000E+000
+4.95780137400E+006, -2.76593248651E+001, +0.00000000000E+000
+4.95780231150E+006, -2.76949340027E+001, +0.00000000000E+000
+4.95780324900E+006, -2.77275512737E+001, +0.00000000000E+000
+4.95780418650E+006, -2.77621166339E+001, +0.00000000000E+000
+4.95780512400E+006, -2.77961287996E+001, +0.00000000000E+000
+4.95780606150E+006, -2.78307465684E+001, +0.00000000000E+000
+4.95780699900E+006, -2.78639505898E+001, +0.00000000000E+000
+4.95780793650E+006, -2.79007216365E+001, +0.00000000000E+000
+4.95780887400E+006, -2.79353564692E+001, +0.00000000000E+000
+4.95780981150E+006, -2.79720690817E+001, +0.00000000000E+000
+4.95781074900E+006, -2.80052903568E+001, +0.00000000000E+000
+4.95781168650E+006, -2.80402086369E+001, +0.00000000000E+000
+4.95781262400E+006, -2.80758392996E+001, +0.00000000000E+000
+4.95781356150E+006, -2.81124515018E+001, +0.00000000000E+000
+4.95781449900E+006, -2.81485770900E+001, +0.00000000000E+000
+4.95781543650E+006, -2.81847865194E+001, +0.00000000000E+000
+4.95781637400E+006, -2.82191439314E+001, +0.00000000000E+000
+4.95781731150E+006, -2.82580680512E+001, +0.00000000000E+000
+4.95781824900E+006, -2.82930638839E+001, +0.00000000000E+000
+4.95781918650E+006, -2.83307394264E+001, +0.00000000000E+000
+4.95782012400E+006, -2.83668335127E+001, +0.00000000000E+000
+4.95782106150E+006, -2.84030038658E+001, +0.00000000000E+000
+4.95782199900E+006, -2.84399306670E+001, +0.00000000000E+000
+4.95782293650E+006, -2.84763863572E+001, +0.00000000000E+000
+4.95782387400E+006, -2.85119451936E+001, +0.00000000000E+000
+4.95782481150E+006, -2.85510144162E+001, +0.00000000000E+000
+4.95782574900E+006, -2.85891368786E+001, +0.00000000000E+000
+4.95782668650E+006, -2.86246473124E+001, +0.00000000000E+000
+4.95782762400E+006, -2.86633256975E+001, +0.00000000000E+000
+4.95782856150E+006, -2.87010315708E+001, +0.00000000000E+000
+4.95782949900E+006, -2.87391148895E+001, +0.00000000000E+000
+4.95783043650E+006, -2.87778175341E+001, +0.00000000000E+000
+4.95783137400E+006, -2.88172086601E+001, +0.00000000000E+000
+4.95783231150E+006, -2.88557024613E+001, +0.00000000000E+000
+4.95783324900E+006, -2.88916585955E+001, +0.00000000000E+000
+4.95783418650E+006, -2.89306873121E+001, +0.00000000000E+000
+4.95783512400E+006, -2.89692881321E+001, +0.00000000000E+000
+4.95783606150E+006, -2.90058603069E+001, +0.00000000000E+000
+4.95783699900E+006, -2.90457947816E+001, +0.00000000000E+000
+4.95783793650E+006, -2.90815762002E+001, +0.00000000000E+000
+4.95783887400E+006, -2.91207307927E+001, +0.00000000000E+000
+4.95783981150E+006, -2.91591511651E+001, +0.00000000000E+000
+4.95784074900E+006, -2.91957765452E+001, +0.00000000000E+000
+4.95784168650E+006, -2.92345861207E+001, +0.00000000000E+000
+4.95784262400E+006, -2.92738075735E+001, +0.00000000000E+000
+4.95784356150E+006, -2.93135794372E+001, +0.00000000000E+000
+4.95784449900E+006, -2.93529630461E+001, +0.00000000000E+000
+4.95784543650E+006, -2.93923745408E+001, +0.00000000000E+000
+4.95784637400E+006, -2.94329016382E+001, +0.00000000000E+000
+4.95784731150E+006, -2.94744031876E+001, +0.00000000000E+000
+4.95784824900E+006, -2.95127492827E+001, +0.00000000000E+000
+4.95784918650E+006, -2.95534967945E+001, +0.00000000000E+000
+4.95785012400E+006, -2.95943167064E+001, +0.00000000000E+000
+4.95785106150E+006, -2.96341723596E+001, +0.00000000000E+000
+4.95785199900E+006, -2.96739478646E+001, +0.00000000000E+000
+4.95785293650E+006, -2.97143616707E+001, +0.00000000000E+000
+4.95785387400E+006, -2.97556803193E+001, +0.00000000000E+000
+4.95785481150E+006, -2.97972420577E+001, +0.00000000000E+000
+4.95785574900E+006, -2.98373723419E+001, +0.00000000000E+000
+4.95785668650E+006, -2.98799057392E+001, +0.00000000000E+000
+4.95785762400E+006, -2.99214030071E+001, +0.00000000000E+000
+4.95785856150E+006, -2.99629710524E+001, +0.00000000000E+000
+4.95785949900E+006, -3.00054672200E+001, +0.00000000000E+000
+4.95786043650E+006, -3.00491697684E+001, +0.00000000000E+000
+4.95786137400E+006, -3.00916597605E+001, +0.00000000000E+000
+4.95786231150E+006, -3.01339448492E+001, +0.00000000000E+000
+4.95786324900E+006, -3.01771539274E+001, +0.00000000000E+000
+4.95786418650E+006, -3.02212976656E+001, +0.00000000000E+000
+4.95786512400E+006, -3.02633833627E+001, +0.00000000000E+000
+4.95786606150E+006, -3.03082489613E+001, +0.00000000000E+000
+4.95786699900E+006, -3.03507217355E+001, +0.00000000000E+000
+4.95786793650E+006, -3.03954855987E+001, +0.00000000000E+000
+4.95786887400E+006, -3.04368422189E+001, +0.00000000000E+000
+4.95786981150E+006, -3.04796548103E+001, +0.00000000000E+000
+4.95787074900E+006, -3.05257008238E+001, +0.00000000000E+000
+4.95787168650E+006, -3.05707120215E+001, +0.00000000000E+000
+4.95787262400E+006, -3.06142255752E+001, +0.00000000000E+000
+4.95787356150E+006, -3.06587893600E+001, +0.00000000000E+000
+4.95787449900E+006, -3.07046547403E+001, +0.00000000000E+000
+4.95787543650E+006, -3.07502726913E+001, +0.00000000000E+000
+4.95787637400E+006, -3.07951046018E+001, +0.00000000000E+000
+4.95787731150E+006, -3.08401602416E+001, +0.00000000000E+000
+4.95787824900E+006, -3.08859508780E+001, +0.00000000000E+000
+4.95787918650E+006, -3.09306195421E+001, +0.00000000000E+000
+4.95788012400E+006, -3.09790522685E+001, +0.00000000000E+000
+4.95788106150E+006, -3.10245455610E+001, +0.00000000000E+000
+4.95788199900E+006, -3.10710676732E+001, +0.00000000000E+000
+4.95788293650E+006, -3.11179709917E+001, +0.00000000000E+000
+4.95788387400E+006, -3.11643453697E+001, +0.00000000000E+000
+4.95788481150E+006, -3.12111657227E+001, +0.00000000000E+000
+4.95788574900E+006, -3.12587852764E+001, +0.00000000000E+000
+4.95788668650E+006, -3.13049139576E+001, +0.00000000000E+000
+4.95788762400E+006, -3.13513175713E+001, +0.00000000000E+000
+4.95788856150E+006, -3.14015392725E+001, +0.00000000000E+000
+4.95788949900E+006, -3.14478019029E+001, +0.00000000000E+000
+4.95789043650E+006, -3.14950280546E+001, +0.00000000000E+000
+4.95789137400E+006, -3.15448214696E+001, +0.00000000000E+000
+4.95789231150E+006, -3.15910610097E+001, +0.00000000000E+000
+4.95789324900E+006, -3.16399496132E+001, +0.00000000000E+000
+4.95789418650E+006, -3.16878967964E+001, +0.00000000000E+000
+4.95789512400E+006, -3.17388372452E+001, +0.00000000000E+000
+4.95789606150E+006, -3.17871323647E+001, +0.00000000000E+000
+4.95789699900E+006, -3.18373846944E+001, +0.00000000000E+000
+4.95789793650E+006, -3.18853662007E+001, +0.00000000000E+000
+4.95789887400E+006, -3.19346742818E+001, +0.00000000000E+000
+4.95789981150E+006, -3.19847382105E+001, +0.00000000000E+000
+4.95790074900E+006, -3.20343158068E+001, +0.00000000000E+000
+4.95790168650E+006, -3.20839833828E+001, +0.00000000000E+000
+4.95790262400E+006, -3.21338521359E+001, +0.00000000000E+000
+4.95790356150E+006, -3.21857928211E+001, +0.00000000000E+000
+4.95790449900E+006, -3.22346397652E+001, +0.00000000000E+000
+4.95790543650E+006, -3.22865161829E+001, +0.00000000000E+000
+4.95790637400E+006, -3.23373135170E+001, +0.00000000000E+000
+4.95790731150E+006, -3.23879393949E+001, +0.00000000000E+000
+4.95790824900E+006, -3.24388715176E+001, +0.00000000000E+000
+4.95790918650E+006, -3.24912394164E+001, +0.00000000000E+000
+4.95791012400E+006, -3.25426221621E+001, +0.00000000000E+000
+4.95791106150E+006, -3.25955085813E+001, +0.00000000000E+000
+4.95791199900E+006, -3.26467720240E+001, +0.00000000000E+000
+4.95791293650E+006, -3.26993369274E+001, +0.00000000000E+000
+4.95791387400E+006, -3.27513333834E+001, +0.00000000000E+000
+4.95791481150E+006, -3.28051581085E+001, +0.00000000000E+000
+4.95791574900E+006, -3.28576521310E+001, +0.00000000000E+000
+4.95791668650E+006, -3.29116319932E+001, +0.00000000000E+000
+4.95791762400E+006, -3.29638801164E+001, +0.00000000000E+000
+4.95791856150E+006, -3.30184563553E+001, +0.00000000000E+000
+4.95791949900E+006, -3.30730506708E+001, +0.00000000000E+000
+4.95792043650E+006, -3.31256962301E+001, +0.00000000000E+000
+4.95792137400E+006, -3.31815210926E+001, +0.00000000000E+000
+4.95792231150E+006, -3.32351635670E+001, +0.00000000000E+000
+4.95792324900E+006, -3.32897139627E+001, +0.00000000000E+000
+4.95792418650E+006, -3.33441562050E+001, +0.00000000000E+000
+4.95792512400E+006, -3.34001616240E+001, +0.00000000000E+000
+4.95792606150E+006, -3.34552878712E+001, +0.00000000000E+000
+4.95792699900E+006, -3.35122350583E+001, +0.00000000000E+000
+4.95792793650E+006, -3.35672616360E+001, +0.00000000000E+000
+4.95792887400E+006, -3.36234669112E+001, +0.00000000000E+000
+4.95792981150E+006, -3.36812207411E+001, +0.00000000000E+000
+4.95793074900E+006, -3.37371046485E+001, +0.00000000000E+000
+4.95793168650E+006, -3.37928191600E+001, +0.00000000000E+000
+4.95793262400E+006, -3.38504450058E+001, +0.00000000000E+000
+4.95793356150E+006, -3.39086882936E+001, +0.00000000000E+000
+4.95793449900E+006, -3.39651420343E+001, +0.00000000000E+000
+4.95793543650E+006, -3.40222316127E+001, +0.00000000000E+000
+4.95793637400E+006, -3.40813855430E+001, +0.00000000000E+000
+4.95793731150E+006, -3.41388692240E+001, +0.00000000000E+000
+4.95793824900E+006, -3.41986295373E+001, +0.00000000000E+000
+4.95793918650E+006, -3.42575314878E+001, +0.00000000000E+000
+4.95794012400E+006, -3.43181392693E+001, +0.00000000000E+000
+4.95794106150E+006, -3.43769164901E+001, +0.00000000000E+000
+4.95794199900E+006, -3.44363077207E+001, +0.00000000000E+000
+4.95794293650E+006, -3.44957572004E+001, +0.00000000000E+000
+4.95794387400E+006, -3.45568385063E+001, +0.00000000000E+000
+4.95794481150E+006, -3.46172096906E+001, +0.00000000000E+000
+4.95794574900E+006, -3.46787348085E+001, +0.00000000000E+000
+4.95794668650E+006, -3.47395198446E+001, +0.00000000000E+000
+4.95794762400E+006, -3.48009695983E+001, +0.00000000000E+000
+4.95794856150E+006, -3.48637113875E+001, +0.00000000000E+000
+4.95794949900E+006, -3.49233085245E+001, +0.00000000000E+000
+4.95795043650E+006, -3.49866709335E+001, +0.00000000000E+000
+4.95795137400E+006, -3.50490964397E+001, +0.00000000000E+000
+4.95795231150E+006, -3.51107272978E+001, +0.00000000000E+000
+4.95795324900E+006, -3.51741588294E+001, +0.00000000000E+000
+4.95795418650E+006, -3.52367866030E+001, +0.00000000000E+000
+4.95795512400E+006, -3.53017469135E+001, +0.00000000000E+000
+4.95795606150E+006, -3.53647031024E+001, +0.00000000000E+000
+4.95795699900E+006, -3.54291170172E+001, +0.00000000000E+000
+4.95795793650E+006, -3.54932105329E+001, +0.00000000000E+000
+4.95795887400E+006, -3.55573809541E+001, +0.00000000000E+000
+4.95795981150E+006, -3.56233686163E+001, +0.00000000000E+000
+4.95796074900E+006, -3.56891207001E+001, +0.00000000000E+000
+4.95796168650E+006, -3.57538813908E+001, +0.00000000000E+000
+4.95796262400E+006, -3.58183343650E+001, +0.00000000000E+000
+4.95796356150E+006, -3.58832800941E+001, +0.00000000000E+000
+4.95796449900E+006, -3.59505837684E+001, +0.00000000000E+000
+4.95796543650E+006, -3.60165908196E+001, +0.00000000000E+000
+4.95796637400E+006, -3.60846136079E+001, +0.00000000000E+000
+4.95796731150E+006, -3.61504557504E+001, +0.00000000000E+000
+4.95796824900E+006, -3.62171446526E+001, +0.00000000000E+000
+4.95796918650E+006, -3.62863643965E+001, +0.00000000000E+000
+4.95797012400E+006, -3.63539727297E+001, +0.00000000000E+000
+4.95797106150E+006, -3.64234528252E+001, +0.00000000000E+000
+4.95797199900E+006, -3.64904741474E+001, +0.00000000000E+000
+4.95797293650E+006, -3.65608621846E+001, +0.00000000000E+000
+4.95797387400E+006, -3.66312795027E+001, +0.00000000000E+000
+4.95797481150E+006, -3.67002469865E+001, +0.00000000000E+000
+4.95797574900E+006, -3.67700428307E+001, +0.00000000000E+000
+4.95797668650E+006, -3.68401520001E+001, +0.00000000000E+000
+4.95797762400E+006, -3.69093893354E+001, +0.00000000000E+000
+4.95797856150E+006, -3.69813762328E+001, +0.00000000000E+000
+4.95797949900E+006, -3.70521276254E+001, +0.00000000000E+000
+4.95798043650E+006, -3.71225035052E+001, +0.00000000000E+000
+4.95798137400E+006, -3.71930752080E+001, +0.00000000000E+000
+4.95798231150E+006, -3.72658561662E+001, +0.00000000000E+000
+4.95798324900E+006, -3.73389673820E+001, +0.00000000000E+000
+4.95798418650E+006, -3.74113835907E+001, +0.00000000000E+000
+4.95798512400E+006, -3.74840555571E+001, +0.00000000000E+000
+4.95798606150E+006, -3.75581232736E+001, +0.00000000000E+000
+4.95798699900E+006, -3.76322463020E+001, +0.00000000000E+000
+4.95798793650E+006, -3.77064914720E+001, +0.00000000000E+000
+4.95798887400E+006, -3.77814621149E+001, +0.00000000000E+000
+4.95798981150E+006, -3.78568762874E+001, +0.00000000000E+000
+4.95799074900E+006, -3.79303686796E+001, +0.00000000000E+000
