"# Channel 1"
"# Trace 2"
Frequency, Formatted Data, Formatted Data
+4.95769074900E+006, -2.26117950920E+001, +0.00000000000E+000
+4.95769168650E+006, -2.25369706839E+001, +0.00000000000E+000
+4.95769262400E+006, -2.25776888045E+001, +0.00000000000E+000
+4.95769356150E+006, -2.26057745224E+001, +0.00000000000E+000
+4.95769449900E+006, -2.26337024228E+001, +0.00000000000E+000
+4.95769543650E+006, -2.26612914712E+001, +0.00000000000E+000
+4.95769637400E+006, -2.26917201240E+001, +0.00000000000E+000
+4.95769731150E+006, -2.27190472006E+001, +0.00000000000E+000
+4.95769824900E+006, -2.27480516435E+001, +0.00000000000E+000
+4.95769918650E+006, -2.27793674885E+001, +0.00000000000E+000
+4.95770012400E+006, -2.28069505775E+001, +0.00000000000E+000
+4.95770106150E+006, -2.28357015613E+001, +0.00000000000E+000
+4.95770199900E+006, -2.28656163925E+001, +0.00000000000E+000
+4.95770293650E+006, -2.28932193975E+001, +0.00000000000E+000
+4.95770387400E+006, -2.29230457421E+001, +0.00000000000E+000
+4.95770481150E+006, -2.29536551867E+001, +0.00000000000E+000
+4.95770574900E+006, -2.29820884075E+001, +0.00000000000E+000
+4.95770668650E+006, -2.30097307437E+001, +0.00000000000E+000
+4.95770762400E+006, -2.30406415834E+001, +0.00000000000E+000
+4.95770856150E+006, -2.30726214415E+001, +0.00000000000E+000
+4.95770949900E+006, -2.31002602656E+001, +0.00000000000E+000
+4.95771043650E+006, -2.31291778368E+001, +0.00000000000E+000
+4.95771137400E+006, -2.31588872203E+001, +0.00000000000E+000
+4.95771231150E+006, -2.31884191560E+001, +0.00000000000E+000
+4.95771324900E+006, -2.32184730405E+001, +0.00000000000E+000
+4.95771418650E+006, -2.32514778242E+001, +0.00000000000E+000
+4.95771512400E+006, -2.32788265746E+001, +0.00000000000E+000
+4.95771606150E+006, -2.33108987790E+001, +0.00000000000E+000
+4.95771699900E+006, -2.33412198934E+001, +0.00000000000E+000
+4.95771793650E+006, -2.33704634112E+001, +0.00000000000E+000
+4.95771887400E+006, -2.34012195556E+001, +0.00000000000E+000
+4.95771981150E+006, -2.34336947908E+001, +0.00000000000E+000
+4.95772074900E+006, -2.34633483134E+001, +0.00000000000E+000
+4.95772168650E+006, -2.34943342808E+001, +0.00000000000E+000
+4.95772262400E+006, -2.35265627421E+001, +0.00000000000E+000
+4.95772356150E+006, -2.35562246688E+001, +0.00000000000E+000
+4.95772449900E+006, -2.35873830963E+001, +0.00000000000E+000
+4.95772543650E+006, -2.36195928711E+001, +0.00000000000E+000
+4.95772637400E+006, -2.36508866401E+001, +0.00000000000E+000
+4.95772731150E+006, -2.36826369600E+001, +0.00000000000E+000
+4.95772824900E+006, -2.37146372482E+001, +0.00000000000E+000
+4.95772918650E+006, -2.37451215410E+001, +0.00000000000E+000
+4.95773012400E+006, -2.37762609930E+001, +0.00000000000E+000
+4.95773106150E+006, -2.38095122200E+001, +0.00000000000E+000
+4.95773199900E+006, -2.38412575014E+001, +0.00000000000E+000
+4.95773293650E+006, -2.38718270557E+001, +0.00000000000E+000
+4.95773387400E+006, -2.39048646419E+001, +0.00000000000E+000
+4.95773481150E+006, -2.39371085816E+001, +0.00000000000E+000
+4.95773574900E+006, -2.39701754636E+001, +0.00000000000E+000
+4.95773668650E+006, -2.40008019038E+001, +0.00000000000E+000
+4.95773762400E+006, -2.40353875166E+001, +0.00000000000E+000
+4.95773856150E+006, -2.40661416315E+001, +0.00000000000E+000
+4.95773949900E+006, -2.40985561207E+001, +0.00000000000E+000
+4.95774043650E+006, -2.41309848898E+001, +0.00000000000E+000
+4.95774137400E+006, -2.41625757722E+001, +0.00000000000E+000
+4.95774231150E+006, -2.41969669793E+001, +0.00000000000E+000
+4.95774324900E+006, -2.42288008210E+001, +0.00000000000E+000
+4.95774418650E+006, -2.42636944103E+001, +0.00000000000E+000
+4.95774512400E+006, -2.42962422682E+001, +0.00000000000E+000
+4.95774606150E+006, -2.43294951374E+001, +0.00000000000E+000
+4.95774699900E+006, -2.43619965215E+001, +0.00000000000E+000
+4.95774793650E+006, -2.43964549026E+001, +0.00000000000E+000
+4.95774887400E+006, -2.44293790822E+001, +0.00000000000E+000
+4.95774981150E+006, -2.44641012151E+001, +0.00000000000E+000
+4.95775074900E+006, -2.44977319323E+001, +0.00000000000E+000
+4.95775168650E+006, -2.45314383471E+001, +0.00000000000E+000
+4.95775262400E+006, -2.45642149915E+001, +0.00000000000E+000
+4.95775356150E+006, -2.45992797825E+001, +0.00000000000E+000
+4.95775449900E+006, -2.46327577880E+001, +0.00000000000E+000
+4.95775543650E+006, -2.46678136719E+001, +0.00000000000E+000
+4.95775637400E+006, -2.47026409698E+001, +0.00000000000E+000
+4.95775731150E+006, -2.47378593392E+001, +0.00000000000E+000
+4.95775824900E+006, -2.47698464458E+001, +0.00000000000E+000
+4.95775918650E+006, -2.48062957787E+001, +0.00000000000E+000
+4.95776012400E+006, -2.48411363189E+001, +0.00000000000E+000
+4.95776106150E+006, -2.48771163740E+001, +0.00000000000E+000
+4.95776199900E+006, -2.49103128654E+001, +0.00000000000E+000
+4.95776293650E+006, -2.49472577848E+001, +0.00000000000E+000
+4.95776387400E+006, -2.49814842327E+001, +0.00000000000E+000
+4.95776481150E+006, -2.50156146812E+001, +0.00000000000E+000
+4.95776574900E+006, -2.50524876521E+001, +0.00000000000E+000
+4.95776668650E+006, -2.50880865061E+001, +0.00000000000E+000
+4.95776762400E+006, -2.51237066039E+001, +0.00000000000E+000
+4.95776856150E+006, -2.51579770920E+001, +0.00000000000E+000
+4.95776949900E+006, -2.51951014163E+001, +0.00000000000E+000
+4.95777043650E+006, -2.52309644420E+001, +0.00000000000E+000
+4.95777137400E+006, -2.52665000277E+001, +0.00000000000E+000
+4.95777231150E+006, -2.53033884315E+001, +0.00000000000E+000
+4.95777324900E+006, -2.53383595323E+001, +0.00000000000E+000
+4.95777418650E+006, -2.53764889109E+001, +0.00000000000E+000
+4.95777512400E+006, -2.54124243165E+001, +0.00000000000E+000
+4.95777606150E+006, -2.54499689892E+001, +0.00000000000E+000
+4.95777699900E+006, -2.54845659462E+001, +0.00000000000E+000
+4.95777793650E+006, -2.55218994552E+001, +0.00000000000E+000
+4.95777887400E+006, -2.55596745495E+001, +0.00000000000E+000
+4.95777981150E+006, -2.55953635046E+001, +0.00000000000E+000
+4.95778074900E+006, -2.56350571939E+001, +0.00000000000E+000
+4.95778168650E+006, -2.56705761089E+001, +0.00000000000E+000
+4.95778262400E+006, -2.57088858361E+001, +0.00000000000E+000
+4.95778356150E+006, -2.57477933735E+001, +0.00000000000E+000
+4.95778449900E+006, -2.57836954632E+001, +0.00000000000E+000
+4.95778543650E+006, -2.58233730469E+001, +0.00000000000E+000
+4.95778637400E+006, -2.58600773888E+001, +0.00000000000E+000
+4.95778731150E+006, -2.58977524339E+001, +0.00000000000E+000
+4.95778824900E+006, -2.59372687295E+001, +0.00000000000E+000
+4.95778918650E+006, -2.59747123329E+001, +0.00000000000E+000
+4.95779012400E+006, -2.60136543512E+001, +0.00000000000E+000
+4.95779106150E+006, -2.60527833166E+001, +0.00000000000E+000
+4.95779199900E+006, -2.60915722725E+001, +0.00000000000E+000
+4.95779293650E+006, -2.61282131114E+001, +0.00000000000E+000
+4.95779387400E+006, -2.61673534775E+001, +0.00000000000E+000
+4.95779481150E+006, -2.62091671175E+001, +0.00000000000E+000
+4.95779574900E+006, -2.62474083137E+001, +0.00000000000E+000
+4.95779668650E+006, -2.62874713286E+001, +0.00000000000E+000
+4.95779762400E+006, -2.63264094393E+001, +0.00000000000E+000
+4.95779856150E+006, -2.63655979109E+001, +0.00000000000E+000
+4.95779949900E+006, -2.64045859178E+001, +0.00000000000E+000
+4.95780043650E+006, -2.64448570728E+001, +0.00000000000E+000
+4.95780137400E+006, -2.64855254401E+001, +0.00000000000E+000
+4.95780231150E+006, -2.65248147136E+001, +0.00000000000E+000
+4.95780324900E+006, -2.65643509890E+001, +0.00000000000E+000
+4.95780418650E+006, -2.66054476778E+001, +0.00000000000E+000
+4.95780512400E+006, -2.66461773419E+001, +0.00000000000E+000
+4.95780606150E+006, -2.66888338418E+001, +0.00000000000E+000
+4.95780699900E+006, -2.67272084977E+001, +0.00000000000E+000
+4.95780793650E+006, -2.67684053742E+001, +0.00000000000E+000
+4.95780887400E+006, -2.68100392647E+001, +0.00000000000E+000
+4.95780981150E+006, -2.68498115195E+001, +0.00000000000E+000
+4.95781074900E+006, -2.68908795568E+001, +0.00000000000E+000
+4.95781168650E+006, -2.69341935411E+001, +0.00000000000E+000
+4.95781262400E+006, -2.69742402617E+001, +0.00000000000E+000
+4.95781356150E+006, -2.70170263872E+001, +0.00000000000E+000
+4.95781449900E+006, -2.70584554865E+001, +0.00000000000E+000
+4.95781543650E+006, -2.70998628258E+001, +0.00000000000E+000
+4.95781637400E+006, -2.71418146974E+001, +0.00000000000E+000
+4.95781731150E+006, -2.71841893012E+001, +0.00000000000E+000
+4.95781824900E+006, -2.72259409579E+001, +0.00000000000E+000
+4.95781918650E+006, -2.72684900349E+001, +0.00000000000E+000
+4.95782012400E+006, -2.73119053376E+001, +0.00000000000E+000
+4.95782106150E+006, -2.73577224935E+001, +0.00000000000E+000
+4.95782199900E+006, -2.73988948558E+001, +0.00000000000E+000
+4.95782293650E+006, -2.74407900621E+001, +0.00000000000E+000
+4.95782387400E+006, -2.74845359572E+001, +0.00000000000E+000
+4.95782481150E+006, -2.75285741149E+001, +0.00000000000E+000
+4.95782574900E+006, -2.75714181032E+001, +0.00000000000E+000
+4.95782668650E+006, -2.76158737743E+001, +0.00000000000E+000
+4.95782762400E+006, -2.76582544059E+001, +0.00000000000E+000
+4.95782856150E+006, -2.77039059078E+001, +0.00000000000E+000
+4.95782949900E+006, -2.77487761935E+001, +0.00000000000E+000
+4.95783043650E+006, -2.77921534445E+001, +0.00000000000E+000
+4.95783137400E+006, -2.78367174647E+001, +0.00000000000E+000
+4.95783231150E+006, -2.78816937499E+001, +0.00000000000E+000
+4.95783324900E+006, -2.79253679843E+001, +0.00000000000E+000
+4.95783418650E+006, -2.79709563040E+001, +0.00000000000E+000
+4.95783512400E+006, -2.80159248810E+001, +0.00000000000E+000
+4.95783606150E+006, -2.80632200440E+001, +0.00000000000E+000
+4.95783699900E+006, -2.81080147712E+001, +0.00000000000E+000
+4.95783793650E+006, -2.81540177700E+001, +0.00000000000E+000
+4.95783887400E+006, -2.81970326415E+001, +0.00000000000E+000
+4.95783981150E+006, -2.82438507640E+001, +0.00000000000E+000
+4.95784074900E+006, -2.82901463152E+001, +0.00000000000E+000
+4.95784168650E+006, -2.83351432181E+001, +0.00000000000E+000
+4.95784262400E+006, -2.83816244707E+001, +0.00000000000E+000
+4.95784356150E+006, -2.84291081619E+001, +0.00000000000E+000
+4.95784449900E+006, -2.84743892350E+001, +0.00000000000E+000
+4.95784543650E+006, -2.85209620224E+001, +0.00000000000E+000
+4.95784637400E+006, -2.85688890878E+001, +0.00000000000E+000
+4.95784731150E+006, -2.86151392576E+001, +0.00000000000E+000
+4.95784824900E+006, -2.86645714374E+001, +0.00000000000E+000
+4.95784918650E+006, -2.87122344461E+001, +0.00000000000E+000
+4.95785012400E+006, -2.87586072197E+001, +0.00000000000E+000
+4.95785106150E+006, -2.88082709978E+001, +0.00000000000E+000
+4.95785199900E+006, -2.88556889316E+001, +0.00000000000E+000
+4.95785293650E+006, -2.89027182646E+001, +0.00000000000E+000
+4.95785387400E+006, -2.89511195557E+001, +0.00000000000E+000
+4.95785481150E+006, -2.89991773336E+001, +0.00000000000E+000
+4.95785574900E+006, -2.90490337150E+001, +0.00000000000E+000
+4.95785668650E+006, -2.90989607311E+001, +0.00000000000E+000
+4.95785762400E+006, -2.91465474093E+001, +0.00000000000E+000
+4.95785856150E+006, -2.91960307597E+001, +0.00000000000E+000
+4.95785949900E+006, -2.92462754241E+001, +0.00000000000E+000
+4.95786043650E+006, -2.92962154218E+001, +0.00000000000E+000
+4.95786137400E+006, -2.93457577099E+001, +0.00000000000E+000
+4.95786231150E+006, -2.93952169974E+001, +0.00000000000E+000
+4.95786324900E+006, -2.94456517843E+001, +0.00000000000E+000
+4.95786418650E+006, -2.94950833742E+001, +0.00000000000E+000
+4.95786512400E+006, -2.95477390197E+001, +0.00000000000E+000
+4.95786606150E+006, -2.95961031900E+001, +0.00000000000E+000
+4.95786699900E+006, -2.96480853163E+001, +0.00000000000E+000
+4.95786793650E+006, -2.96983067310E+001, +0.00000000000E+000
+4.95786887400E+006, -2.97512858016E+001, +0.00000000000E+000
+4.95786981150E+006, -2.98020274495E+001, +0.00000000000E+000
+4.95787074900E+006, -2.98534470214E+001, +0.00000000000E+000
+4.95787168650E+006, -2.99069149421E+001, +0.00000000000E+000
+4.95787262400E+006, -2.99577738358E+001, +0.00000000000E+000
+4.95787356150E+006, -3.00085855871E+001, +0.00000000000E+000
+4.95787449900E+006, -3.00612779477E+001, +0.00000000000E+000
+4.95787543650E+006, -3.01147534401E+001, +0.00000000000E+000
+4.95787637400E+006, -3.01673707808E+001, +0.00000000000E+000
+4.95787731150E+006, -3.02195607659E+001, +0.00000000000E+000
+4.95787824900E+006, -3.02746331317E+001, +0.00000000000E+000
+4.95787918650E+006, -3.03278282300E+001, +0.00000000000E+000
+4.95788012400E+006, -3.03817129297E+001, +0.00000000000E+000
+4.95788106150E+006, -3.04341604276E+001, +0.00000000000E+000
+4.95788199900E+006, -3.04882692492E+001, +0.00000000000E+000
+4.95788293650E+006, -3.05432763138E+001, +0.00000000000E+000
+4.95788387400E+006, -3.05956354154E+001, +0.00000000000E+000
+4.95788481150E+006, -3.06531311226E+001, +0.00000000000E+000
+4.95788574900E+006, -3.07072876257E+001, +0.00000000000E+000
+4.95788668650E+006, -3.07619275465E+001, +0.00000000000E+000
+4.95788762400E+006, -3.08169763232E+001, +0.00000000000E+000
+4.95788856150E+006, -3.08718501805E+001, +0.00000000000E+000
+4.95788949900E+006, -3.09262067883E+001, +0.00000000000E+000
+4.95789043650E+006, -3.09846680117E+001, +0.00000000000E+000
+4.95789137400E+006, -3.10385855127E+001, +0.00000000000E+000
+4.95789231150E+006, -3.10956563815E+001, +0.00000000000E+000
+4.95789324900E+006, -3.11528321161E+001, +0.00000000000E+000
+4.95789418650E+006, -3.12073382128E+001, +0.00000000000E+000
+4.95789512400E+006, -3.12631936049E+001, +0.00000000000E+000
+4.95789606150E+006, -3.13222955160E+001, +0.00000000000E+000
+4.95789699900E+006, -3.13791067077E+001, +0.00000000000E+000
+4.95789793650E+006, -3.14367162127E+001, +0.00000000000E+000
+4.95789887400E+006, -3.14953672388E+001, +0.00000000000E+000
+4.95789981150E+006, -3.15532582540E+001, +0.00000000000E+000
+4.95790074900E+006, -3.16115917298E+001, +0.00000000000E+000
+4.95790168650E+006, -3.16685619490E+001, +0.00000000000E+000
+4.95790262400E+006, -3.17274054789E+001, +0.00000000000E+000
+4.95790356150E+006, -3.17882274711E+001, +0.00000000000E+000
+4.95790449900E+006, -3.18451931333E+001, +0.00000000000E+000
+4.95790543650E+006, -3.19053439239E+001, +0.00000000000E+000
+4.95790637400E+006, -3.19635370843E+001, +0.00000000000E+000
+4.95790731150E+006, -3.20239080592E+001, +0.00000000000E+000
+4.95790824900E+006, -3.20861357021E+001, +0.00000000000E+000
+4.95790918650E+006, -3.21450338466E+001, +0.00000000000E+000
+4.95791012400E+006, -3.22075159515E+001, +0.00000000000E+000
+4.95791106150E+006, -3.22677756716E+001, +0.00000000000E+000
+4.95791199900E+006, -3.23261259300E+001, +0.00000000000E+000
+4.95791293650E+006, -3.23876483735E+001, +0.00000000000E+000
+4.95791387400E+006, -3.24509153403E+001, +0.00000000000E+000
+4.95791481150E+006, -3.25125037822E+001, +0.00000000000E+000
+4.95791574900E+006, -3.25751828148E+001, +0.00000000000E+000
+4.95791668650E+006, -3.26363243618E+001, +0.00000000000E+000
+4.95791762400E+006, -3.27000200310E+001, +0.00000000000E+000
+4.95791856150E+006, -3.27614179828E+001, +0.00000000000E+000
+4.95791949900E+006, -3.28249808443E+001, +0.00000000000E+000
+4.95792043650E+006, -3.28872866799E+001, +0.00000000000E+000
+4.95792137400E+006, -3.29502627343E+001, +0.00000000000E+000
+4.95792231150E+006, -3.30152213739E+001, +0.00000000000E+000
+4.95792324900E+006, -3.30793892344E+001, +0.00000000000E+000
+4.95792418650E+006, -3.31442296563E+001, +0.00000000000E+000
+4.95792512400E+006, -3.32087245991E+001, +0.00000000000E+000
+4.95792606150E+006, -3.32717882861E+001, +0.00000000000E+000
+4.95792699900E+006, -3.33371000179E+001, +0.00000000000E+000
+4.95792793650E+006, -3.34022412923E+001, +0.00000000000E+000
+4.95792887400E+006, -3.34674766853E+001, +0.00000000000E+000
+4.95792981150E+006, -3.35356763461E+001, +0.00000000000E+000
+4.95793074900E+006, -3.36005267401E+001, +0.00000000000E+000
+4.95793168650E+006, -3.36656357011E+001, +0.00000000000E+000
+4.95793262400E+006, -3.37339276858E+001, +0.00000000000E+000
+4.95793356150E+006, -3.38009188655E+001, +0.00000000000E+000
+4.95793449900E+006, -3.38676019669E+001, +0.00000000000E+000
+4.95793543650E+006, -3.39347660859E+001, +0.00000000000E+000
+4.95793637400E+006, -3.40023815601E+001, +0.00000000000E+000
+4.95793731150E+006, -3.40704106799E+001, +0.00000000000E+000
+4.95793824900E+006, -3.41393864913E+001, +0.00000000000E+000
+4.95793918650E+006, -3.42080061961E+001, +0.00000000000E+000
+4.95794012400E+006, -3.42769017240E+001, +0.00000000000E+000
+4.95794106150E+006, -3.43464645547E+001, +0.00000000000E+000
+4.95794199900E+006, -3.44141341155E+001, +0.00000000000E+000
+4.95794293650E+006, -3.44844335728E+001, +0.00000000000E+000
+4.95794387400E+006, -3.45547565229E+001, +0.00000000000E+000
+4.95794481150E+006, -3.46251897057E+001, +0.00000000000E+000
+4.95794574900E+006, -3.46940168985E+001, +0.00000000000E+000
+4.95794668650E+006, -3.47667364082E+001, +0.00000000000E+000
+4.95794762400E+006, -3.48393219585E+001, +0.00000000000E+000
+4.95794856150E+006, -3.49094803289E+001, +0.00000000000E+000
+4.95794949900E+006, -3.49809109177E+001, +0.00000000000E+000
+4.95795043650E+006, -3.50529975085E+001, +0.00000000000E+000
+4.95795137400E+006, -3.51265563772E+001, +0.00000000000E+000
+4.95795231150E+006, -3.51972995585E+001, +0.00000000000E+000
+4.95795324900E+006, -3.52711157996E+001, +0.00000000000E+000
+4.95795418650E+006, -3.53436327538E+001, +0.00000000000E+000
+4.95795512400E+006, -3.54182899719E+001, +0.00000000000E+000
+4.95795606150E+006, -3.54915609500E+001, +0.00000000000E+000
+4.95795699900E+006, -3.55651445561E+001, +0.00000000000E+000
+4.95795793650E+006, -3.56387607999E+001, +0.00000000000E+000
+4.95795887400E+006, -3.57160192000E+001, +0.00000000000E+000
+4.95795981150E+006, -3.57899904753E+001, +0.00000000000E+000
+4.95796074900E+006, -3.58655271012E+001, +0.00000000000E+000
+4.95796168650E+006, -3.59427436099E+001, +0.00000000000E+000
+4.95796262400E+006, -3.60191713638E+001, +0.00000000000E+000
+4.95796356150E+006, -3.60950486723E+001, +0.00000000000E+000
+4.95796449900E+006, -3.61728130870E+001, +0.00000000000E+000
+4.95796543650E+006, -3.62486949128E+001, +0.00000000000E+000
+4.95796637400E+006, -3.63268123378E+001, +0.00000000000E+000
+4.95796731150E+006, -3.64050660812E+001, +0.00000000000E+000
+4.95796824900E+006, -3.64830044622E+001, +0.00000000000E+000
+4.95796918650E+006, -3.65613970623E+001, +0.00000000000E+000
+4.95797012400E+006, -3.66399958284E+001, +0.00000000000E+000
+4.95797106150E+006, -3.67184289209E+001, +0.00000000000E+000
+4.95797199900E+006, -3.67994046272E+001, +0.00000000000E+000
+4.95797293650E+006, -3.68769804719E+001, +0.00000000000E+000
+4.95797387400E+006, -3.69572641826E+001, +0.00000000000E+000
+4.95797481150E+006, -3.70371968191E+001, +0.00000000000E+000
+4.95797574900E+006, -3.71184763538E+001, +0.00000000000E+000
+4.95797668650E+006, -3.71998451981E+001, +0.00000000000E+000
+4.95797762400E+006, -3.72808214754E+001, +0.00000000000E+000
+4.95797856150E+006, -3.73652782246E+001, +0.00000000000E+000
+4.95797949900E+006, -3.74456944484E+001, +0.00000000000E+000
+4.95798043650E+006, -3.75282565139E+001, +0.00000000000E+000
+4.95798137400E+006, -3.76119370544E+001, +0.00000000000E+000
+4.95798231150E+006, -3.76928133546E+001, +0.00000000000E+000
+4.95798324900E+006, -3.77787177364E+001, +0.00000000000E+000
+4.95798418650E+006, -3.78621566405E+001, +0.00000000000E+000
+4.95798512400E+006, -3.79489747933E+001, +0.00000000000E+000
+4.95798606150E+006, -3.80334195364E+001, +0.00000000000E+000
+4.95798699900E+006, -3.81202139629E+001, +0.00000000000E+000
+4.95798793650E+006, -3.82040084052E+001, +0.00000000000E+000
+4.95798887400E+006, -3.82892231550E+001, +0.00000000000E+000
+4.95798981150E+006, -3.83763030512E+001, +0.00000000000E+000
+4.95799074900E+006, -3.84621310699E+001, +0.00000000000E+000
