"# Channel 1"
"# Trace 2"
Frequency, Formatted Data, Formatted Data
+4.95769074900E+006, -2.50299546564E+001, +0.00000000000E+000
+4.95769168650E+006, -2.49894957242E+001, +0.00000000000E+000
+4.95769262400E+006, -2.50124209478E+001, +0.00000000000E+000
+4.95769356150E+006, -2.50340099877E+001, +0.00000000000E+000
+4.95769449900E+006, -2.50578051044E+001, +0.00000000000E+000
+4.95769543650E+006, -2.50801252766E+001, +0.00000000000E+000
+4.95769637400E+006, -2.51008200415E+001, +0.00000000000E+000
+4.95769731150E+006, -2.51234163175E+001, +0.00000000000E+000
+4.95769824900E+006, -2.51461957150E+001, +0.00000000000E+000
+4.95769918650E+006, -2.51682606470E+001, +0.00000000000E+000
+4.95770012400E+006, -2.51910895818E+001, +0.00000000000E+000
+4.95770106150E+006, -2.52143302651E+001, +0.00000000000E+000
+4.95770199900E+006, -2.52377482731E+001, +0.00000000000E+000
+4.95770293650E+006, -2.52606773312E+001, +0.00000000000E+000
+4.95770387400E+006, -2.52845775640E+001, +0.00000000000E+000
+4.95770481150E+006, -2.53058372113E+001, +0.00000000000E+000
+4.95770574900E+006, -2.53305589957E+001, +0.00000000000E+000
+4.95770668650E+006, -2.53545524333E+001, +0.00000000000E+000
+4.95770762400E+006, -2.53778018919E+001, +0.00000000000E+000
+4.95770856150E+006, -2.54024229470E+001, +0.00000000000E+000
+4.95770949900E+006, -2.54271391761E+001, +0.00000000000E+000
+4.95771043650E+006, -2.54503251744E+001, +0.00000000000E+000
+4.95771137400E+006, -2.54741388327E+001, +0.00000000000E+000
+4.95771231150E+006, -2.54964755256E+001, +0.00000000000E+000
+4.95771324900E+006, -2.55211965522E+001, +0.00000000000E+000
+4.95771418650E+006, -2.55455494071E+001, +0.00000000000E+000
+4.95771512400E+006, -2.55702132289E+001, +0.00000000000E+000
+4.95771606150E+006, -2.55933775411E+001, +0.00000000000E+000
+4.95771699900E+006, -2.56181621559E+001, +0.00000000000E+000
+4.95771793650E+006, -2.56436766107E+001, +0.00000000000E+000
+4.95771887400E+006, -2.56669761667E+001, +0.00000000000E+000
+4.95771981150E+006, -2.56923203513E+001, +0.00000000000E+000
+4.95772074900E+006, -2.57163237798E+001, +0.00000000000E+000
+4.95772168650E+006, -2.57384718909E+001, +0.00000000000E+000
+4.95772262400E+006, -2.57626607651E+001, +0.00000000000E+000
+4.95772356150E+006, -2.57878579549E+001, +0.00000000000E+000
+4.95772449900E+006, -2.58139660769E+001, +0.00000000000E+000
+4.95772543650E+006, -2.58387094631E+001, +0.00000000000E+000
+4.95772637400E+006, -2.58625775741E+001, +0.00000000000E+000
+4.95772731150E+006, -2.58889304748E+001, +0.00000000000E+000
+4.95772824900E+006, -2.59145174984E+001, +0.00000000000E+000
+4.95772918650E+006, -2.59397213974E+001, +0.00000000000E+000
+4.95773012400E+006, -2.59647081650E+001, +0.00000000000E+000
+4.95773106150E+006, -2.59894487286E+001, +0.00000000000E+000
+4.95773199900E+006, -2.60167455293E+001, +0.00000000000E+000
+4.95773293650E+006, -2.60423208881E+001, +0.00000000000E+000
+4.95773387400E+006, -2.60674231796E+001, +0.00000000000E+000
+4.95773481150E+006, -2.60933062905E+001, +0.00000000000E+000
+4.95773574900E+006, -2.61196440725E+001, +0.00000000000E+000
+4.95773668650E+006, -2.61456589562E+001, +0.00000000000E+000
+4.95773762400E+006, -2.61727939002E+001, +0.00000000000E+000
+4.95773856150E+006, -2.61986718623E+001, +0.00000000000E+000
+4.95773949900E+006, -2.62245304335E+001, +0.00000000000E+000
+4.95774043650E+006, -2.62501284538E+001, +0.00000000000E+000
+4.95774137400E+006, -2.62763951229E+001, +0.00000000000E+000
+4.95774231150E+006, -2.63026180493E+001, +0.00000000000E+000
+4.95774324900E+006, -2.63286159742E+001, +0.00000000000E+000
+4.95774418650E+006, -2.63558649287E+001, +0.00000000000E+000
+4.95774512400E+006, -2.63826371778E+001, +0.00000000000E+000
+4.95774606150E+006, -2.64085516142E+001, +0.00000000000E+000
+4.95774699900E+006, -2.64355998981E+001, +0.00000000000E+000
+4.95774793650E+006, -2.64631954575E+001, +0.00000000000E+000
+4.95774887400E+006, -2.64901847743E+001, +0.00000000000E+000
+4.95774981150E+006, -2.65177396832E+001, +0.00000000000E+000
+4.95775074900E+006, -2.65440274480E+001, +0.00000000000E+000
+4.95775168650E+006, -2.65729440193E+001, +0.00000000000E+000
+4.95775262400E+006, -2.65996556629E+001, +0.00000000000E+000
+4.95775356150E+006, -2.66258920277E+001, +0.00000000000E+000
+4.95775449900E+006, -2.66535466550E+001, +0.00000000000E+000
+4.95775543650E+006, -2.66828370247E+001, +0.00000000000E+000
+4.95775637400E+006, -2.67104426282E+001, +0.00000000000E+000
+4.95775731150E+006, -2.67366095574E+001, +0.00000000000E+000
+4.95775824900E+006, -2.67643855548E+001, +0.00000000000E+000
+4.95775918650E+006, -2.67923825871E+001, +0.00000000000E+000
+4.95776012400E+006, -2.68202411927E+001, +0.00000000000E+000
+4.95776106150E+006, -2.68481021183E+001, +0.00000000000E+000
+4.95776199900E+006, -2.68768647715E+001, +0.00000000000E+000
+4.95776293650E+006, -2.69035077768E+001, +0.00000000000E+000
+4.95776387400E+006, -2.69336577367E+001, +0.00000000000E+000
+4.95776481150E+006, -2.69624882078E+001, +0.00000000000E+000
+4.95776574900E+006, -2.69899795149E+001, +0.00000000000E+000
+4.95776668650E+006, -2.70196770167E+001, +0.00000000000E+000
+4.95776762400E+006, -2.70481750971E+001, +0.00000000000E+000
+4.95776856150E+006, -2.70765560934E+001, +0.00000000000E+000
+4.95776949900E+006, -2.71065127534E+001, +0.00000000000E+000
+4.95777043650E+006, -2.71357474964E+001, +0.00000000000E+000
+4.95777137400E+006, -2.71652217185E+001, +0.00000000000E+000
+4.95777231150E+006, -2.71931373605E+001, +0.00000000000E+000
+4.95777324900E+006, -2.72232834959E+001, +0.00000000000E+000
+4.95777418650E+006, -2.72528183477E+001, +0.00000000000E+000
+4.95777512400E+006, -2.72815221782E+001, +0.00000000000E+000
+4.95777606150E+006, -2.73124710445E+001, +0.00000000000E+000
+4.95777699900E+006, -2.73420425550E+001, +0.00000000000E+000
+4.95777793650E+006, -2.73719427387E+001, +0.00000000000E+000
+4.95777887400E+006, -2.74011000781E+001, +0.00000000000E+000
+4.95777981150E+006, -2.74320742199E+001, +0.00000000000E+000
+4.95778074900E+006, -2.74622128400E+001, +0.00000000000E+000
+4.95778168650E+006, -2.74927827815E+001, +0.00000000000E+000
+4.95778262400E+006, -2.75232774200E+001, +0.00000000000E+000
+4.95778356150E+006, -2.75522419810E+001, +0.00000000000E+000
+4.95778449900E+006, -2.75840352414E+001, +0.00000000000E+000
+4.95778543650E+006, -2.76156180200E+001, +0.00000000000E+000
+4.95778637400E+006, -2.76462640076E+001, +0.00000000000E+000
+4.95778731150E+006, -2.76783508700E+001, +0.00000000000E+000
+4.95778824900E+006, -2.77060998983E+001, +0.00000000000E+000
+4.95778918650E+006, -2.77369453708E+001, +0.00000000000E+000
+4.95779012400E+006, -2.77678503486E+001, +0.00000000000E+000
+4.95779106150E+006, -2.77993464513E+001, +0.00000000000E+000
+4.95779199900E+006, -2.78307660341E+001, +0.00000000000E+000
+4.95779293650E+006, -2.78617804838E+001, +0.00000000000E+000
+4.95779387400E+006, -2.78960395898E+001, +0.00000000000E+000
+4.95779481150E+006, -2.79271202477E+001, +0.00000000000E+000
+4.95779574900E+006, -2.79589710075E+001, +0.00000000000E+000
+4.95779668650E+006, -2.79899513339E+001, +0.00000000000E+000
+4.95779762400E+006, -2.80216828008E+001, +0.00000000000E+000
+4.95779856150E+006, -2.80537935869E+001, +0.00000000000E+000
+4.95779949900E+006, -2.80846820382E+001, +0.00000000000E+000
+4.95780043650E+006, -2.81148944017E+001, +0.00000000000E+000
+4.95780137400E+006, -2.81487394784E+001, +0.00000000000E+000
+4.95780231150E+006, -2.81792733896E+001, +0.00000000000E+000
+4.95780324900E+006, -2.82131514475E+001, +0.00000000000E+000
+4.95780418650E+006, -2.82462343449E+001, +0.00000000000E+000
+4.95780512400E+006, -2.82788660946E+001, +0.00000000000E+000
+4.95780606150E+006, -2.83128961115E+001, +0.00000000000E+000
+4.95780699900E+006, -2.83449530543E+001, +0.00000000000E+000
+4.95780793650E+006, -2.83770649111E+001, +0.00000000000E+000
+4.95780887400E+006, -2.84109124911E+001, +0.00000000000E+000
+4.95780981150E+006, -2.84431783145E+001, +0.00000000000E+000
+4.95781074900E+006, -2.84778596956E+001, +0.00000000000E+000
+4.95781168650E+006, -2.85110561802E+001, +0.00000000000E+000
+4.95781262400E+006, -2.85461877316E+001, +0.00000000000E+000
+4.95781356150E+006, -2.85791963481E+001, +0.00000000000E+000
+4.95781449900E+006, -2.86139980208E+001, +0.00000000000E+000
+4.95781543650E+006, -2.86451565766E+001, +0.00000000000E+000
+4.95781637400E+006, -2.86803457286E+001, +0.00000000000E+000
+4.95781731150E+006, -2.87153144732E+001, +0.00000000000E+000
+4.95781824900E+006, -2.87494853870E+001, +0.00000000000E+000
+4.95781918650E+006, -2.87839011462E+001, +0.00000000000E+000
+4.95782012400E+006, -2.88190848527E+001, +0.00000000000E+000
+4.95782106150E+006, -2.88545824566E+001, +0.00000000000E+000
+4.95782199900E+006, -2.88878873856E+001, +0.00000000000E+000
+4.95782293650E+006, -2.89224676529E+001, +0.00000000000E+000
+4.95782387400E+006, -2.89584288033E+001, +0.00000000000E+000
+4.95782481150E+006, -2.89943390364E+001, +0.00000000000E+000
+4.95782574900E+006, -2.90282954172E+001, +0.00000000000E+000
+4.95782668650E+006, -2.90651330089E+001, +0.00000000000E+000
+4.95782762400E+006, -2.90988615193E+001, +0.00000000000E+000
+4.95782856150E+006, -2.91355069206E+001, +0.00000000000E+000
+4.95782949900E+006, -2.91705390239E+001, +0.00000000000E+000
+4.95783043650E+006, -2.92082646505E+001, +0.00000000000E+000
+4.95783137400E+006, -2.92431340823E+001, +0.00000000000E+000
+4.95783231150E+006, -2.92798638089E+001, +0.00000000000E+000
+4.95783324900E+006, -2.93150844201E+001, +0.00000000000E+000
+4.95783418650E+006, -2.93518348305E+001, +0.00000000000E+000
+4.95783512400E+006, -2.93885925142E+001, +0.00000000000E+000
+4.95783606150E+006, -2.94255874452E+001, +0.00000000000E+000
+4.95783699900E+006, -2.94619349740E+001, +0.00000000000E+000
+4.95783793650E+006, -2.94988365983E+001, +0.00000000000E+000
+4.95783887400E+006, -2.95366485308E+001, +0.00000000000E+000
+4.95783981150E+006, -2.95741060797E+001, +0.00000000000E+000
+4.95784074900E+006, -2.96109750816E+001, +0.00000000000E+000
+4.95784168650E+006, -2.96463880416E+001, +0.00000000000E+000
+4.95784262400E+006, -2.96849242247E+001, +0.00000000000E+000
+4.95784356150E+006, -2.97249482845E+001, +0.00000000000E+000
+4.95784449900E+006, -2.97612544167E+001, +0.00000000000E+000
+4.95784543650E+006, -2.97994663198E+001, +0.00000000000E+000
+4.95784637400E+006, -2.98377614578E+001, +0.00000000000E+000
+4.95784731150E+006, -2.98763284495E+001, +0.00000000000E+000
+4.95784824900E+006, -2.99146621757E+001, +0.00000000000E+000
+4.95784918650E+006, -2.99519068500E+001, +0.00000000000E+000
+4.95785012400E+006, -2.99896883977E+001, +0.00000000000E+000
+4.95785106150E+006, -3.00276098022E+001, +0.00000000000E+000
+4.95785199900E+006, -3.00669886139E+001, +0.00000000000E+000
+4.95785293650E+006, -3.01073991500E+001, +0.00000000000E+000
+4.95785387400E+006, -3.01469160926E+001, +0.00000000000E+000
+4.95785481150E+006, -3.01872248095E+001, +0.00000000000E+000
+4.95785574900E+006, -3.02257263275E+001, +0.00000000000E+000
+4.95785668650E+006, -3.02662230041E+001, +0.00000000000E+000
+4.95785762400E+006, -3.03039057646E+001, +0.00000000000E+000
+4.95785856150E+006, -3.03447193758E+001, +0.00000000000E+000
+4.95785949900E+006, -3.03847598690E+001, +0.00000000000E+000
+4.95786043650E+006, -3.04259209948E+001, +0.00000000000E+000
+4.95786137400E+006, -3.04653197355E+001, +0.00000000000E+000
+4.95786231150E+006, -3.05073674850E+001, +0.00000000000E+000
+4.95786324900E+006, -3.05473622979E+001, +0.00000000000E+000
+4.95786418650E+006, -3.05889043644E+001, +0.00000000000E+000
+4.95786512400E+006, -3.06297489901E+001, +0.00000000000E+000
+4.95786606150E+006, -3.06710444585E+001, +0.00000000000E+000
+4.95786699900E+006, -3.07124160772E+001, +0.00000000000E+000
+4.95786793650E+006, -3.07509321984E+001, +0.00000000000E+000
+4.95786887400E+006, -3.07938733294E+001, +0.00000000000E+000
+4.95786981150E+006, -3.08360976169E+001, +0.00000000000E+000
+4.95787074900E+006, -3.08782821273E+001, +0.00000000000E+000
+4.95787168650E+006, -3.09205495953E+001, +0.00000000000E+000
+4.95787262400E+006, -3.09612289109E+001, +0.00000000000E+000
+4.95787356150E+006, -3.10042269339E+001, +0.00000000000E+000
+4.95787449900E+006, -3.10464106089E+001, +0.00000000000E+000
+4.95787543650E+006, -3.10909969590E+001, +0.00000000000E+000
+4.95787637400E+006, -3.11336799715E+001, +0.00000000000E+000
+4.95787731150E+006, -3.11757561885E+001, +0.00000000000E+000
+4.95787824900E+006, -3.12192478103E+001, +0.00000000000E+000
+4.95787918650E+006, -3.12630123437E+001, +0.00000000000E+000
+4.95788012400E+006, -3.13064712904E+001, +0.00000000000E+000
+4.95788106150E+006, -3.13497270302E+001, +0.00000000000E+000
+4.95788199900E+006, -3.13936430297E+001, +0.00000000000E+000
+4.95788293650E+006, -3.14374676298E+001, +0.00000000000E+000
+4.95788387400E+006, -3.14822581528E+001, +0.00000000000E+000
+4.95788481150E+006, -3.15269790713E+001, +0.00000000000E+000
+4.95788574900E+006, -3.15698828977E+001, +0.00000000000E+000
+4.95788668650E+006, -3.16159442200E+001, +0.00000000000E+000
+4.95788762400E+006, -3.16610030922E+001, +0.00000000000E+000
+4.95788856150E+006, -3.17060079139E+001, +0.00000000000E+000
+4.95788949900E+006, -3.17512586951E+001, +0.00000000000E+000
+4.95789043650E+006, -3.17957980585E+001, +0.00000000000E+000
+4.95789137400E+006, -3.18410785654E+001, +0.00000000000E+000
+4.95789231150E+006, -3.18873281974E+001, +0.00000000000E+000
+4.95789324900E+006, -3.19347332555E+001, +0.00000000000E+000
+4.95789418650E+006, -3.19803870091E+001, +0.00000000000E+000
+4.95789512400E+006, -3.20267022313E+001, +0.00000000000E+000
+4.95789606150E+006, -3.20734471240E+001, +0.00000000000E+000
+4.95789699900E+006, -3.21207660854E+001, +0.00000000000E+000
+4.95789793650E+006, -3.21667189281E+001, +0.00000000000E+000
+4.95789887400E+006, -3.22136946735E+001, +0.00000000000E+000
+4.95789981150E+006, -3.22601536295E+001, +0.00000000000E+000
+4.95790074900E+006, -3.23085263208E+001, +0.00000000000E+000
+4.95790168650E+006, -3.23567633274E+001, +0.00000000000E+000
+4.95790262400E+006, -3.24036475533E+001, +0.00000000000E+000
+4.95790356150E+006, -3.24521940728E+001, +0.00000000000E+000
+4.95790449900E+006, -3.25010410918E+001, +0.00000000000E+000
+4.95790543650E+006, -3.25484156652E+001, +0.00000000000E+000
+4.95790637400E+006, -3.25978786571E+001, +0.00000000000E+000
+4.95790731150E+006, -3.26473003799E+001, +0.00000000000E+000
+4.95790824900E+006, -3.26962505290E+001, +0.00000000000E+000
+4.95790918650E+006, -3.27446440808E+001, +0.00000000000E+000
+4.95791012400E+006, -3.27942123299E+001, +0.00000000000E+000
+4.95791106150E+006, -3.28445426816E+001, +0.00000000000E+000
+4.95791199900E+006, -3.28941310596E+001, +0.00000000000E+000
+4.95791293650E+006, -3.29449614054E+001, +0.00000000000E+000
+4.95791387400E+006, -3.29939941823E+001, +0.00000000000E+000
+4.95791481150E+006, -3.30433974723E+001, +0.00000000000E+000
+4.95791574900E+006, -3.30948751049E+001, +0.00000000000E+000
+4.95791668650E+006, -3.31446365764E+001, +0.00000000000E+000
+4.95791762400E+006, -3.31962883666E+001, +0.00000000000E+000
+4.95791856150E+006, -3.32475998725E+001, +0.00000000000E+000
+4.95791949900E+006, -3.32990429854E+001, +0.00000000000E+000
+4.95792043650E+006, -3.33517600893E+001, +0.00000000000E+000
+4.95792137400E+006, -3.34028757306E+001, +0.00000000000E+000
+4.95792231150E+006, -3.34553396662E+001, +0.00000000000E+000
+4.95792324900E+006, -3.35074682503E+001, +0.00000000000E+000
+4.95792418650E+006, -3.35606318923E+001, +0.00000000000E+000
+4.95792512400E+006, -3.36134698121E+001, +0.00000000000E+000
+4.95792606150E+006, -3.36658798709E+001, +0.00000000000E+000
+4.95792699900E+006, -3.37188749373E+001, +0.00000000000E+000
+4.95792793650E+006, -3.37722446936E+001, +0.00000000000E+000
+4.95792887400E+006, -3.38248984590E+001, +0.00000000000E+000
+4.95792981150E+006, -3.38803735013E+001, +0.00000000000E+000
+4.95793074900E+006, -3.39336248170E+001, +0.00000000000E+000
+4.95793168650E+006, -3.39870191832E+001, +0.00000000000E+000
+4.95793262400E+006, -3.40419789629E+001, +0.00000000000E+000
+4.95793356150E+006, -3.40974673396E+001, +0.00000000000E+000
+4.95793449900E+006, -3.41514466751E+001, +0.00000000000E+000
+4.95793543650E+006, -3.42069442521E+001, +0.00000000000E+000
+4.95793637400E+006, -3.42618693557E+001, +0.00000000000E+000
+4.95793731150E+006, -3.43193086860E+001, +0.00000000000E+000
+4.95793824900E+006, -3.43740391597E+001, +0.00000000000E+000
+4.95793918650E+006, -3.44291632544E+001, +0.00000000000E+000
+4.95794012400E+006, -3.44869545603E+001, +0.00000000000E+000
+4.95794106150E+006, -3.45443031851E+001, +0.00000000000E+000
+4.95794199900E+006, -3.46007892753E+001, +0.00000000000E+000
+4.95794293650E+006, -3.46564931184E+001, +0.00000000000E+000
+4.95794387400E+006, -3.47159159931E+001, +0.00000000000E+000
+4.95794481150E+006, -3.47730977317E+001, +0.00000000000E+000
+4.95794574900E+006, -3.48297164130E+001, +0.00000000000E+000
+4.95794668650E+006, -3.48880381699E+001, +0.00000000000E+000
+4.95794762400E+006, -3.49462048177E+001, +0.00000000000E+000
+4.95794856150E+006, -3.50058717770E+001, +0.00000000000E+000
+4.95794949900E+006, -3.50642912869E+001, +0.00000000000E+000
+4.95795043650E+006, -3.51244636258E+001, +0.00000000000E+000
+4.95795137400E+006, -3.51839314975E+001, +0.00000000000E+000
+4.95795231150E+006, -3.52430512901E+001, +0.00000000000E+000
+4.95795324900E+006, -3.53027366158E+001, +0.00000000000E+000
+4.95795418650E+006, -3.53645780533E+001, +0.00000000000E+000
+4.95795512400E+006, -3.54237908955E+001, +0.00000000000E+000
+4.95795606150E+006, -3.54856452538E+001, +0.00000000000E+000
+4.95795699900E+006, -3.55469088205E+001, +0.00000000000E+000
+4.95795793650E+006, -3.56096261638E+001, +0.00000000000E+000
+4.95795887400E+006, -3.56695760385E+001, +0.00000000000E+000
+4.95795981150E+006, -3.57308583858E+001, +0.00000000000E+000
+4.95796074900E+006, -3.57921927942E+001, +0.00000000000E+000
+4.95796168650E+006, -3.58554730710E+001, +0.00000000000E+000
+4.95796262400E+006, -3.59180468487E+001, +0.00000000000E+000
+4.95796356150E+006, -3.59815563859E+001, +0.00000000000E+000
+4.95796449900E+006, -3.60447447086E+001, +0.00000000000E+000
+4.95796543650E+006, -3.61073806640E+001, +0.00000000000E+000
+4.95796637400E+006, -3.61730197735E+001, +0.00000000000E+000
+4.95796731150E+006, -3.62372744232E+001, +0.00000000000E+000
+4.95796824900E+006, -3.63008797680E+001, +0.00000000000E+000
+4.95796918650E+006, -3.63657716476E+001, +0.00000000000E+000
+4.95797012400E+006, -3.64308618617E+001, +0.00000000000E+000
+4.95797106150E+006, -3.64958820910E+001, +0.00000000000E+000
+4.95797199900E+006, -3.65606663590E+001, +0.00000000000E+000
+4.95797293650E+006, -3.66272831696E+001, +0.00000000000E+000
+4.95797387400E+006, -3.66948354282E+001, +0.00000000000E+000
+4.95797481150E+006, -3.67594920230E+001, +0.00000000000E+000
+4.95797574900E+006, -3.68277826968E+001, +0.00000000000E+000
+4.95797668650E+006, -3.68951347929E+001, +0.00000000000E+000
+4.95797762400E+006, -3.69623605752E+001, +0.00000000000E+000
+4.95797856150E+006, -3.70296905261E+001, +0.00000000000E+000
+4.95797949900E+006, -3.70966891490E+001, +0.00000000000E+000
+4.95798043650E+006, -3.71662271437E+001, +0.00000000000E+000
+4.95798137400E+006, -3.72329793947E+001, +0.00000000000E+000
+4.95798231150E+006, -3.73037958357E+001, +0.00000000000E+000
+4.95798324900E+006, -3.73725079281E+001, +0.00000000000E+000
+4.95798418650E+006, -3.74422711151E+001, +0.00000000000E+000
+4.95798512400E+006, -3.75128361566E+001, +0.00000000000E+000
+4.95798606150E+006, -3.75829832660E+001, +0.00000000000E+000
+4.95798699900E+006, -3.76539551551E+001, +0.00000000000E+000
+4.95798793650E+006, -3.77236585659E+001, +0.00000000000E+000
+4.95798887400E+006, -3.77966908425E+001, +0.00000000000E+000
+4.95798981150E+006, -3.78683067093E+001, +0.00000000000E+000
+4.95799074900E+006, -3.79408317470E+001, +0.00000000000E+000
