"# Channel 1"
"# Trace 2"
Frequency, Formatted Data, Formatted Data
+4.95769074900E+006, -2.28125423411E+001, +0.00000000000E+000
+4.95769168650E+006, -2.27293448295E+001, +0.00000000000E+000
+4.95769262400E+006, -2.27718493369E+001, +0.00000000000E+000
+4.95769356150E+006, -2.27963704951E+001, +0.00000000000E+000
+4.95769449900E+006, -2.28214188594E+001, +0.00000000000E+000
+4.95769543650E+006, -2.28475455060E+001, +0.00000000000E+000
+4.95769637400E+006, -2.28733082935E+001, +0.00000000000E+000
+4.95769731150E+006, -2.28989002010E+001, +0.00000000000E+000
+4.95769824900E+006, -2.29238532471E+001, +0.00000000000E+000
+4.95769918650E+006, -2.29517744117E+001, +0.00000000000E+000
+4.95770012400E+006, -2.29772445789E+001, +0.00000000000E+000
+4.95770106150E+006, -2.30037292706E+001, +0.00000000000E+000
+4.95770199900E+006, -2.30298262636E+001, +0.00000000000E+000
+4.95770293650E+006, -2.30572267345E+001, +0.00000000000E+000
+4.95770387400E+006, -2.30827538380E+001, +0.00000000000E+000
+4.95770481150E+006, -2.31097836824E+001, +0.00000000000E+000
+4.95770574900E+006, -2.31354657813E+001, +0.00000000000E+000
+4.95770668650E+006, -2.31632822940E+001, +0.00000000000E+000
+4.95770762400E+006, -2.31903073315E+001, +0.00000000000E+000
+4.95770856150E+006, -2.32159066962E+001, +0.00000000000E+000
+4.95770949900E+006, -2.32437960714E+001, +0.00000000000E+000
+4.95771043650E+006, -2.32692194811E+001, +0.00000000000E+000
+4.95771137400E+006, -2.32953843601E+001, +0.00000000000E+000
+4.95771231150E+006, -2.33224997718E+001, +0.00000000000E+000
+4.95771324900E+006, -2.33499669382E+001, +0.00000000000E+000
+4.95771418650E+006, -2.33770563018E+001, +0.00000000000E+000
+4.95771512400E+006, -2.34039354603E+001, +0.00000000000E+000
+4.95771606150E+006, -2.34306543961E+001, +0.00000000000E+000
+4.95771699900E+006, -2.34585601072E+001, +0.00000000000E+000
+4.95771793650E+006, -2.34867894093E+001, +0.00000000000E+000
+4.95771887400E+006, -2.35153370779E+001, +0.00000000000E+000
+4.95771981150E+006, -2.35422993908E+001, +0.00000000000E+000
+4.95772074900E+006, -2.35696953653E+001, +0.00000000000E+000
+4.95772168650E+006, -2.35983352618E+001, +0.00000000000E+000
+4.95772262400E+006, -2.36260997256E+001, +0.00000000000E+000
+4.95772356150E+006, -2.36544808467E+001, +0.00000000000E+000
+4.95772449900E+006, -2.36819078829E+001, +0.00000000000E+000
+4.95772543650E+006, -2.37109606772E+001, +0.00000000000E+000
+4.95772637400E+006, -2.37369027122E+001, +0.00000000000E+000
+4.95772731150E+006, -2.37665829460E+001, +0.00000000000E+000
+4.95772824900E+006, -2.37944967400E+001, +0.00000000000E+000
+4.95772918650E+006, -2.38237897184E+001, +0.00000000000E+000
+4.95773012400E+006, -2.38514185659E+001, +0.00000000000E+000
+4.95773106150E+006, -2.38804555379E+001, +0.00000000000E+000
+4.95773199900E+006, -2.39107615751E+001, +0.00000000000E+000
+4.95773293650E+006, -2.39373566623E+001, +0.00000000000E+000
+4.95773387400E+006, -2.39661628872E+001, +0.00000000000E+000
+4.95773481150E+006, -2.39968868829E+001, +0.00000000000E+000
+4.95773574900E+006, -2.40249382634E+001, +0.00000000000E+000
+4.95773668650E+006, -2.40555530525E+001, +0.00000000000E+000
+4.95773762400E+006, -2.40830132653E+001, +0.00000000000E+000
+4.95773856150E+006, -2.41135313456E+001, +0.00000000000E+000
+4.95773949900E+006, -2.41414211849E+001, +0.00000000000E+000
+4.95774043650E+006, -2.41720950988E+001, +0.00000000000E+000
+4.95774137400E+006, -2.42017503685E+001, +0.00000000000E+000
+4.95774231150E+006, -2.42322910518E+001, +0.00000000000E+000
+4.95774324900E+006, -2.42604933850E+001, +0.00000000000E+000
+4.95774418650E+006, -2.42900231097E+001, +0.00000000000E+000
+4.95774512400E+006, -2.43200611575E+001, +0.00000000000E+000
+4.95774606150E+006, -2.43501244475E+001, +0.00000000000E+000
+4.95774699900E+006, -2.43804915555E+001, +0.00000000000E+000
+4.95774793650E+006, -2.44109052232E+001, +0.00000000000E+000
+4.95774887400E+006, -2.44420357555E+001, +0.00000000000E+000
+4.95774981150E+006, -2.44716876181E+001, +0.00000000000E+000
+4.95775074900E+006, -2.45020407899E+001, +0.00000000000E+000
+4.95775168650E+006, -2.45317931137E+001, +0.00000000000E+000
+4.95775262400E+006, -2.45614273280E+001, +0.00000000000E+000
+4.95775356150E+006, -2.45937284501E+001, +0.00000000000E+000
+4.95775449900E+006, -2.46251284877E+001, +0.00000000000E+000
+4.95775543650E+006, -2.46552358651E+001, +0.00000000000E+000
+4.95775637400E+006, -2.46873881931E+001, +0.00000000000E+000
+4.95775731150E+006, -2.47190603094E+001, +0.00000000000E+000
+4.95775824900E+006, -2.47488458817E+001, +0.00000000000E+000
+4.95775918650E+006, -2.47806244269E+001, +0.00000000000E+000
+4.95776012400E+006, -2.48103195273E+001, +0.00000000000E+000
+4.95776106150E+006, -2.48439297917E+001, +0.00000000000E+000
+4.95776199900E+006, -2.48741896243E+001, +0.00000000000E+000
+4.95776293650E+006, -2.49055351097E+001, +0.00000000000E+000
+4.95776387400E+006, -2.49391034713E+001, +0.00000000000E+000
+4.95776481150E+006, -2.49703866917E+001, +0.00000000000E+000
+4.95776574900E+006, -2.50016860210E+001, +0.00000000000E+000
+4.95776668650E+006, -2.50339350914E+001, +0.00000000000E+000
+4.95776762400E+006, -2.50673225001E+001, +0.00000000000E+000
+4.95776856150E+006, -2.50986796355E+001, +0.00000000000E+000
+4.95776949900E+006, -2.51309515113E+001, +0.00000000000E+000
+4.95777043650E+006, -2.51645006393E+001, +0.00000000000E+000
+4.95777137400E+006, -2.51976647308E+001, +0.00000000000E+000
+4.95777231150E+006, -2.52293016283E+001, +0.00000000000E+000
+4.95777324900E+006, -2.52609416792E+001, +0.00000000000E+000
+4.95777418650E+006, -2.52945864026E+001, +0.00000000000E+000
+4.95777512400E+006, -2.53275481067E+001, +0.00000000000E+000
+4.95777606150E+006, -2.53590659665E+001, +0.00000000000E+000
+4.95777699900E+006, -2.53921139814E+001, +0.00000000000E+000
+4.95777793650E+006, -2.54256930100E+001, +0.00000000000E+000
+4.95777887400E+006, -2.54585569552E+001, +0.00000000000E+000
+4.95777981150E+006, -2.54940594138E+001, +0.00000000000E+000
+4.95778074900E+006, -2.55261051881E+001, +0.00000000000E+000
+4.95778168650E+006, -2.55622018489E+001, +0.00000000000E+000
+4.95778262400E+006, -2.55936759759E+001, +0.00000000000E+000
+4.95778356150E+006, -2.56264084827E+001, +0.00000000000E+000
+4.95778449900E+006, -2.56627386335E+001, +0.00000000000E+000
+4.95778543650E+006, -2.56966687978E+001, +0.00000000000E+000
+4.95778637400E+006, -2.57305905662E+001, +0.00000000000E+000
+4.95778731150E+006, -2.57641785121E+001, +0.00000000000E+000
+4.95778824900E+006, -2.57981553059E+001, +0.00000000000E+000
+4.95778918650E+006, -2.58340911238E+001, +0.00000000000E+000
+4.95779012400E+006, -2.58667217127E+001, +0.00000000000E+000
+4.95779106150E+006, -2.59012703420E+001, +0.00000000000E+000
+4.95779199900E+006, -2.59380136260E+001, +0.00000000000E+000
+4.95779293650E+006, -2.59715489296E+001, +0.00000000000E+000
+4.95779387400E+006, -2.60077232955E+001, +0.00000000000E+000
+4.95779481150E+006, -2.60435313856E+001, +0.00000000000E+000
+4.95779574900E+006, -2.60784008966E+001, +0.00000000000E+000
+4.95779668650E+006, -2.61135344776E+001, +0.00000000000E+000
+4.95779762400E+006, -2.61495334510E+001, +0.00000000000E+000
+4.95779856150E+006, -2.61846946517E+001, +0.00000000000E+000
+4.95779949900E+006, -2.62204695355E+001, +0.00000000000E+000
+4.95780043650E+006, -2.62545574553E+001, +0.00000000000E+000
+4.95780137400E+006, -2.62916850004E+001, +0.00000000000E+000
+4.95780231150E+006, -2.63280083898E+001, +0.00000000000E+000
+4.95780324900E+006, -2.63639084486E+001, +0.00000000000E+000
+4.95780418650E+006, -2.64003219679E+001, +0.00000000000E+000
+4.95780512400E+006, -2.64353346443E+001, +0.00000000000E+000
+4.95780606150E+006, -2.64730006472E+001, +0.00000000000E+000
+4.95780699900E+006, -2.65090560169E+001, +0.00000000000E+000
+4.95780793650E+006, -2.65471806525E+001, +0.00000000000E+000
+4.95780887400E+006, -2.65820546172E+001, +0.00000000000E+000
+4.95780981150E+006, -2.66215877076E+001, +0.00000000000E+000
+4.95781074900E+006, -2.66592725173E+001, +0.00000000000E+000
+4.95781168650E+006, -2.66956928621E+001, +0.00000000000E+000
+4.95781262400E+006, -2.67331370101E+001, +0.00000000000E+000
+4.95781356150E+006, -2.67702717665E+001, +0.00000000000E+000
+4.95781449900E+006, -2.68067736697E+001, +0.00000000000E+000
+4.95781543650E+006, -2.68455260160E+001, +0.00000000000E+000
+4.95781637400E+006, -2.68826540423E+001, +0.00000000000E+000
+4.95781731150E+006, -2.69198804224E+001, +0.00000000000E+000
+4.95781824900E+006, -2.69587706369E+001, +0.00000000000E+000
+4.95781918650E+006, -2.69969941750E+001, +0.00000000000E+000
+4.95782012400E+006, -2.70345239116E+001, +0.00000000000E+000
+4.95782106150E+006, -2.70747277952E+001, +0.00000000000E+000
+4.95782199900E+006, -2.71130197228E+001, +0.00000000000E+000
+4.95782293650E+006, -2.71505956361E+001, +0.00000000000E+000
+4.95782387400E+006, -2.71890886061E+001, +0.00000000000E+000
+4.95782481150E+006, -2.72283984884E+001, +0.00000000000E+000
+4.95782574900E+006, -2.72668255089E+001, +0.00000000000E+000
+4.95782668650E+006, -2.73075571607E+001, +0.00000000000E+000
+4.95782762400E+006, -2.73454347384E+001, +0.00000000000E+000
+4.95782856150E+006, -2.73859230875E+001, +0.00000000000E+000
+4.95782949900E+006, -2.74249976686E+001, +0.00000000000E+000
+4.95783043650E+006, -2.74645166599E+001, +0.00000000000E+000
+4.95783137400E+006, -2.75053672001E+001, +0.00000000000E+000
+4.95783231150E+006, -2.75440881821E+001, +0.00000000000E+000
+4.95783324900E+006, -2.75845100146E+001, +0.00000000000E+000
+4.95783418650E+006, -2.76251185520E+001, +0.00000000000E+000
+4.95783512400E+006, -2.76658772734E+001, +0.00000000000E+000
+4.95783606150E+006, -2.77068836068E+001, +0.00000000000E+000
+4.95783699900E+006, -2.77459952262E+001, +0.00000000000E+000
+4.95783793650E+006, -2.77864492137E+001, +0.00000000000E+000
+4.95783887400E+006, -2.78294938781E+001, +0.00000000000E+000
+4.95783981150E+006, -2.78687197639E+001, +0.00000000000E+000
+4.95784074900E+006, -2.79117340704E+001, +0.00000000000E+000
+4.95784168650E+006, -2.79531637008E+001, +0.00000000000E+000
+4.95784262400E+006, -2.79945720266E+001, +0.00000000000E+000
+4.95784356150E+006, -2.80360744139E+001, +0.00000000000E+000
+4.95784449900E+006, -2.80773208513E+001, +0.00000000000E+000
+4.95784543650E+006, -2.81200636112E+001, +0.00000000000E+000
+4.95784637400E+006, -2.81616235533E+001, +0.00000000000E+000
+4.95784731150E+006, -2.82036238148E+001, +0.00000000000E+000
+4.95784824900E+006, -2.82448229724E+001, +0.00000000000E+000
+4.95784918650E+006, -2.82883861089E+001, +0.00000000000E+000
+4.95785012400E+006, -2.83308581497E+001, +0.00000000000E+000
+4.95785106150E+006, -2.83745251483E+001, +0.00000000000E+000
+4.95785199900E+006, -2.84170751759E+001, +0.00000000000E+000
+4.95785293650E+006, -2.84606648648E+001, +0.00000000000E+000
+4.95785387400E+006, -2.85028074907E+001, +0.00000000000E+000
+4.95785481150E+006, -2.85460246142E+001, +0.00000000000E+000
+4.95785574900E+006, -2.85914504507E+001, +0.00000000000E+000
+4.95785668650E+006, -2.86351490022E+001, +0.00000000000E+000
+4.95785762400E+006, -2.86778526227E+001, +0.00000000000E+000
+4.95785856150E+006, -2.87219462435E+001, +0.00000000000E+000
+4.95785949900E+006, -2.87659194678E+001, +0.00000000000E+000
+4.95786043650E+006, -2.88111827756E+001, +0.00000000000E+000
+4.95786137400E+006, -2.88552854009E+001, +0.00000000000E+000
+4.95786231150E+006, -2.89003378337E+001, +0.00000000000E+000
+4.95786324900E+006, -2.89461983533E+001, +0.00000000000E+000
+4.95786418650E+006, -2.89894974186E+001, +0.00000000000E+000
+4.95786512400E+006, -2.90341615913E+001, +0.00000000000E+000
+4.95786606150E+006, -2.90797926205E+001, +0.00000000000E+000
+4.95786699900E+006, -2.91253370142E+001, +0.00000000000E+000
+4.95786793650E+006, -2.91704681317E+001, +0.00000000000E+000
+4.95786887400E+006, -2.92161992880E+001, +0.00000000000E+000
+4.95786981150E+006, -2.92632841067E+001, +0.00000000000E+000
+4.95787074900E+006, -2.93082138673E+001, +0.00000000000E+000
+4.95787168650E+006, -2.93556659525E+001, +0.00000000000E+000
+4.95787262400E+006, -2.94005019181E+001, +0.00000000000E+000
+4.95787356150E+006, -2.94476844365E+001, +0.00000000000E+000
+4.95787449900E+006, -2.94933418764E+001, +0.00000000000E+000
+4.95787543650E+006, -2.95407553378E+001, +0.00000000000E+000
+4.95787637400E+006, -2.95882636451E+001, +0.00000000000E+000
+4.95787731150E+006, -2.96359624540E+001, +0.00000000000E+000
+4.95787824900E+006, -2.96829959826E+001, +0.00000000000E+000
+4.95787918650E+006, -2.97313759320E+001, +0.00000000000E+000
+4.95788012400E+006, -2.97791752823E+001, +0.00000000000E+000
+4.95788106150E+006, -2.98270601948E+001, +0.00000000000E+000
+4.95788199900E+006, -2.98740194553E+001, +0.00000000000E+000
+4.95788293650E+006, -2.99222426073E+001, +0.00000000000E+000
+4.95788387400E+006, -2.99704979922E+001, +0.00000000000E+000
+4.95788481150E+006, -3.00201783018E+001, +0.00000000000E+000
+4.95788574900E+006, -3.00692996230E+001, +0.00000000000E+000
+4.95788668650E+006, -3.01176757077E+001, +0.00000000000E+000
+4.95788762400E+006, -3.01661865304E+001, +0.00000000000E+000
+4.95788856150E+006, -3.02173290536E+001, +0.00000000000E+000
+4.95788949900E+006, -3.02656884488E+001, +0.00000000000E+000
+4.95789043650E+006, -3.03164680489E+001, +0.00000000000E+000
+4.95789137400E+006, -3.03644816004E+001, +0.00000000000E+000
+4.95789231150E+006, -3.04162389857E+001, +0.00000000000E+000
+4.95789324900E+006, -3.04657248210E+001, +0.00000000000E+000
+4.95789418650E+006, -3.05169150533E+001, +0.00000000000E+000
+4.95789512400E+006, -3.05658571996E+001, +0.00000000000E+000
+4.95789606150E+006, -3.06181038814E+001, +0.00000000000E+000
+4.95789699900E+006, -3.06685927388E+001, +0.00000000000E+000
+4.95789793650E+006, -3.07208195205E+001, +0.00000000000E+000
+4.95789887400E+006, -3.07707685722E+001, +0.00000000000E+000
+4.95789981150E+006, -3.08243915470E+001, +0.00000000000E+000
+4.95790074900E+006, -3.08746256031E+001, +0.00000000000E+000
+4.95790168650E+006, -3.09258195885E+001, +0.00000000000E+000
+4.95790262400E+006, -3.09795932572E+001, +0.00000000000E+000
+4.95790356150E+006, -3.10316544245E+001, +0.00000000000E+000
+4.95790449900E+006, -3.10845688641E+001, +0.00000000000E+000
+4.95790543650E+006, -3.11362519604E+001, +0.00000000000E+000
+4.95790637400E+006, -3.11887040553E+001, +0.00000000000E+000
+4.95790731150E+006, -3.12435875490E+001, +0.00000000000E+000
+4.95790824900E+006, -3.12950615798E+001, +0.00000000000E+000
+4.95790918650E+006, -3.13495281554E+001, +0.00000000000E+000
+4.95791012400E+006, -3.14041705958E+001, +0.00000000000E+000
+4.95791106150E+006, -3.14583843784E+001, +0.00000000000E+000
+4.95791199900E+006, -3.15127916024E+001, +0.00000000000E+000
+4.95791293650E+006, -3.15680162247E+001, +0.00000000000E+000
+4.95791387400E+006, -3.16223777887E+001, +0.00000000000E+000
+4.95791481150E+006, -3.16766211181E+001, +0.00000000000E+000
+4.95791574900E+006, -3.17326557324E+001, +0.00000000000E+000
+4.95791668650E+006, -3.17860309696E+001, +0.00000000000E+000
+4.95791762400E+006, -3.18419488259E+001, +0.00000000000E+000
+4.95791856150E+006, -3.18992924192E+001, +0.00000000000E+000
+4.95791949900E+006, -3.19536608955E+001, +0.00000000000E+000
+4.95792043650E+006, -3.20089241623E+001, +0.00000000000E+000
+4.95792137400E+006, -3.20665592490E+001, +0.00000000000E+000
+4.95792231150E+006, -3.21244548340E+001, +0.00000000000E+000
+4.95792324900E+006, -3.21798184525E+001, +0.00000000000E+000
+4.95792418650E+006, -3.22380484093E+001, +0.00000000000E+000
+4.95792512400E+006, -3.22948387394E+001, +0.00000000000E+000
+4.95792606150E+006, -3.23516723035E+001, +0.00000000000E+000
+4.95792699900E+006, -3.24104336143E+001, +0.00000000000E+000
+4.95792793650E+006, -3.24656242514E+001, +0.00000000000E+000
+4.95792887400E+006, -3.25233735485E+001, +0.00000000000E+000
+4.95792981150E+006, -3.25836316494E+001, +0.00000000000E+000
+4.95793074900E+006, -3.26407031931E+001, +0.00000000000E+000
+4.95793168650E+006, -3.26998642740E+001, +0.00000000000E+000
+4.95793262400E+006, -3.27589906653E+001, +0.00000000000E+000
+4.95793356150E+006, -3.28197095502E+001, +0.00000000000E+000
+4.95793449900E+006, -3.28791754215E+001, +0.00000000000E+000
+4.95793543650E+006, -3.29391797304E+001, +0.00000000000E+000
+4.95793637400E+006, -3.29994193884E+001, +0.00000000000E+000
+4.95793731150E+006, -3.30597622522E+001, +0.00000000000E+000
+4.95793824900E+006, -3.31206526079E+001, +0.00000000000E+000
+4.95793918650E+006, -3.31795191726E+001, +0.00000000000E+000
+4.95794012400E+006, -3.32408239743E+001, +0.00000000000E+000
+4.95794106150E+006, -3.33021519129E+001, +0.00000000000E+000
+4.95794199900E+006, -3.33659583265E+001, +0.00000000000E+000
+4.95794293650E+006, -3.34262064608E+001, +0.00000000000E+000
+4.95794387400E+006, -3.34875558141E+001, +0.00000000000E+000
+4.95794481150E+006, -3.35481277572E+001, +0.00000000000E+000
+4.95794574900E+006, -3.36139424092E+001, +0.00000000000E+000
+4.95794668650E+006, -3.36761211734E+001, +0.00000000000E+000
+4.95794762400E+006, -3.37385338451E+001, +0.00000000000E+000
+4.95794856150E+006, -3.38013651269E+001, +0.00000000000E+000
+4.95794949900E+006, -3.38652126691E+001, +0.00000000000E+000
+4.95795043650E+006, -3.39288640515E+001, +0.00000000000E+000
+4.95795137400E+006, -3.39935967342E+001, +0.00000000000E+000
+4.95795231150E+006, -3.40569708397E+001, +0.00000000000E+000
+4.95795324900E+006, -3.41236624739E+001, +0.00000000000E+000
+4.95795418650E+006, -3.41869420587E+001, +0.00000000000E+000
+4.95795512400E+006, -3.42505956632E+001, +0.00000000000E+000
+4.95795606150E+006, -3.43188356047E+001, +0.00000000000E+000
+4.95795699900E+006, -3.43817976428E+001, +0.00000000000E+000
+4.95795793650E+006, -3.44493173579E+001, +0.00000000000E+000
+4.95795887400E+006, -3.45162741604E+001, +0.00000000000E+000
+4.95795981150E+006, -3.45821853319E+001, +0.00000000000E+000
+4.95796074900E+006, -3.46494122800E+001, +0.00000000000E+000
+4.95796168650E+006, -3.47153925701E+001, +0.00000000000E+000
+4.95796262400E+006, -3.47830838860E+001, +0.00000000000E+000
+4.95796356150E+006, -3.48505702827E+001, +0.00000000000E+000
+4.95796449900E+006, -3.49183959513E+001, +0.00000000000E+000
+4.95796543650E+006, -3.49860173625E+001, +0.00000000000E+000
+4.95796637400E+006, -3.50563373524E+001, +0.00000000000E+000
+4.95796731150E+006, -3.51228590157E+001, +0.00000000000E+000
+4.95796824900E+006, -3.51941020371E+001, +0.00000000000E+000
+4.95796918650E+006, -3.52637324946E+001, +0.00000000000E+000
+4.95797012400E+006, -3.53339724740E+001, +0.00000000000E+000
+4.95797106150E+006, -3.54019178629E+001, +0.00000000000E+000
+4.95797199900E+006, -3.54725859153E+001, +0.00000000000E+000
+4.95797293650E+006, -3.55438516137E+001, +0.00000000000E+000
+4.95797387400E+006, -3.56149163114E+001, +0.00000000000E+000
+4.95797481150E+006, -3.56836693911E+001, +0.00000000000E+000
+4.95797574900E+006, -3.57564935398E+001, +0.00000000000E+000
+4.95797668650E+006, -3.58282507503E+001, +0.00000000000E+000
+4.95797762400E+006, -3.59011398211E+001, +0.00000000000E+000
+4.95797856150E+006, -3.59733526835E+001, +0.00000000000E+000
+4.95797949900E+006, -3.60471656735E+001, +0.00000000000E+000
+4.95798043650E+006, -3.61203602386E+001, +0.00000000000E+000
+4.95798137400E+006, -3.61921206755E+001, +0.00000000000E+000
+4.95798231150E+006, -3.62659583719E+001, +0.00000000000E+000
+4.95798324900E+006, -3.63412706112E+001, +0.00000000000E+000
+4.95798418650E+006, -3.64143819698E+001, +0.00000000000E+000
+4.95798512400E+006, -3.64909597025E+001, +0.00000000000E+000
+4.95798606150E+006, -3.65643505019E+001, +0.00000000000E+000
+4.95798699900E+006, -3.66404180818E+001, +0.00000000000E+000
+4.95798793650E+006, -3.67158550586E+001, +0.00000000000E+000
+4.95798887400E+006, -3.67927715211E+001, +0.00000000000E+000
+4.95798981150E+006, -3.68679992068E+001, +0.00000000000E+000
+4.95799074900E+006, -3.69460215651E+001, +0.00000000000E+000
