"# Channel 1"
"# Trace 2"
Frequency, Formatted Data, Formatted Data
+4.95769074900E+006, -2.21137812850E+001, +0.00000000000E+000
+4.95769168650E+006, -2.20192810429E+001, +0.00000000000E+000
+4.95769262400E+006, -2.20567059027E+001, +0.00000000000E+000
+4.95769356150E+006, -2.20834016708E+001, +0.00000000000E+000
+4.95769449900E+006, -2.21092044106E+001, +0.00000000000E+000
+4.95769543650E+006, -2.21336516702E+001, +0.00000000000E+000
+4.95769637400E+006, -2.21576476639E+001, +0.00000000000E+000
+4.95769731150E+006, -2.21810329323E+001, +0.00000000000E+000
+4.95769824900E+006, -2.22068512370E+001, +0.00000000000E+000
+4.95769918650E+006, -2.22321350918E+001, +0.00000000000E+000
+4.95770012400E+006, -2.22582762047E+001, +0.00000000000E+000
+4.95770106150E+006, -2.22853059395E+001, +0.00000000000E+000
+4.95770199900E+006, -2.23086175017E+001, +0.00000000000E+000
+4.95770293650E+006, -2.23336017212E+001, +0.00000000000E+000
+4.95770387400E+006, -2.23614438827E+001, +0.00000000000E+000
+4.95770481150E+006, -2.23847896454E+001, +0.00000000000E+000
+4.95770574900E+006, -2.24120282788E+001, +0.00000000000E+000
+4.95770668650E+006, -2.24353123966E+001, +0.00000000000E+000
+4.95770762400E+006, -2.24612629778E+001, +0.00000000000E+000
+4.95770856150E+006, -2.24866638852E+001, +0.00000000000E+000
+4.95770949900E+006, -2.25135811585E+001, +0.00000000000E+000
+4.95771043650E+006, -2.25411714984E+001, +0.00000000000E+000
+4.95771137400E+006, -2.25663486451E+001, +0.00000000000E+000
+4.95771231150E+006, -2.25922488078E+001, +0.00000000000E+000
+4.95771324900E+006, -2.26183044217E+001, +0.00000000000E+000
+4.95771418650E+006, -2.26460757774E+001, +0.00000000000E+000
+4.95771512400E+006, -2.26716307410E+001, +0.00000000000E+000
+4.95771606150E+006, -2.26970704947E+001, +0.00000000000E+000
+4.95771699900E+006, -2.27249124642E+001, +0.00000000000E+000
+4.95771793650E+006, -2.27502271883E+001, +0.00000000000E+000
+4.95771887400E+006, -2.27770112626E+001, +0.00000000000E+000
+4.95771981150E+006, -2.28049509740E+001, +0.00000000000E+000
+4.95772074900E+006, -2.28311443596E+001, +0.00000000000E+000
+4.95772168650E+006, -2.28573115101E+001, +0.00000000000E+000
+4.95772262400E+006, -2.28849420617E+001, +0.00000000000E+000
+4.95772356150E+006, -2.29112512582E+001, +0.00000000000E+000
+4.95772449900E+006, -2.29384288066E+001, +0.00000000000E+000
+4.95772543650E+006, -2.29663420142E+001, +0.00000000000E+000
+4.95772637400E+006, -2.29930689206E+001, +0.00000000000E+000
+4.95772731150E+006, -2.30192076954E+001, +0.00000000000E+000
+4.95772824900E+006, -2.30475732299E+001, +0.00000000000E+000
+4.95772918650E+006, -2.30756714773E+001, +0.00000000000E+000
+4.95773012400E+006, -2.31008530979E+001, +0.00000000000E+000
+4.95773106150E+006, -2.31307608724E+001, +0.00000000000E+000
+4.95773199900E+006, -2.31585544549E+001, +0.00000000000E+000
+4.95773293650E+006, -2.31848683129E+001, +0.00000000000E+000
+4.95773387400E+006, -2.32132064035E+001, +0.00000000000E+000
+4.95773481150E+006, -2.32410180859E+001, +0.00000000000E+000
+4.95773574900E+006, -2.32697342980E+001, +0.00000000000E+000
+4.95773668650E+006, -2.32987471776E+001, +0.00000000000E+000
+4.95773762400E+006, -2.33260039713E+001, +0.00000000000E+000
+4.95773856150E+006, -2.33547353236E+001, +0.00000000000E+000
+4.95773949900E+006, -2.33824427362E+001, +0.00000000000E+000
+4.95774043650E+006, -2.34112205966E+001, +0.00000000000E+000
+4.95774137400E+006, -2.34393822753E+001, +0.00000000000E+000
+4.95774231150E+006, -2.34681146969E+001, +0.00000000000E+000
+4.95774324900E+006, -2.34960665298E+001, +0.00000000000E+000
+4.95774418650E+006, -2.35272317879E+001, +0.00000000000E+000
+4.95774512400E+006, -2.35530858582E+001, +0.00000000000E+000
+4.95774606150E+006, -2.35857797712E+001, +0.00000000000E+000
+4.95774699900E+006, -2.36148797468E+001, +0.00000000000E+000
+4.95774793650E+006, -2.36422656797E+001, +0.00000000000E+000
+4.95774887400E+006, -2.36719952850E+001, +0.00000000000E+000
+4.95774981150E+006, -2.37012891987E+001, +0.00000000000E+000
+4.95775074900E+006, -2.37295755995E+001, +0.00000000000E+000
+4.95775168650E+006, -2.37588372195E+001, +0.00000000000E+000
+4.95775262400E+006, -2.37880569497E+001, +0.00000000000E+000
+4.95775356150E+006, -2.38179306362E+001, +0.00000000000E+000
+4.95775449900E+006, -2.38479505224E+001, +0.00000000000E+000
+4.95775543650E+006, -2.38778665894E+001, +0.00000000000E+000
+4.95775637400E+006, -2.39070001839E+001, +0.00000000000E+000
+4.95775731150E+006, -2.39371152864E+001, +0.00000000000E+000
+4.95775824900E+006, -2.39665682782E+001, +0.00000000000E+000
+4.95775918650E+006, -2.39956312674E+001, +0.00000000000E+000
+4.95776012400E+006, -2.40277961362E+001, +0.00000000000E+000
+4.95776106150E+006, -2.40569595271E+001, +0.00000000000E+000
+4.95776199900E+006, -2.40881396535E+001, +0.00000000000E+000
+4.95776293650E+006, -2.41197932352E+001, +0.00000000000E+000
+4.95776387400E+006, -2.41494874494E+001, +0.00000000000E+000
+4.95776481150E+006, -2.41793805729E+001, +0.00000000000E+000
+4.95776574900E+006, -2.42113796197E+001, +0.00000000000E+000
+4.95776668650E+006, -2.42407713823E+001, +0.00000000000E+000
+4.95776762400E+006, -2.42709680369E+001, +0.00000000000E+000
+4.95776856150E+006, -2.43037393763E+001, +0.00000000000E+000
+4.95776949900E+006, -2.43342202496E+001, +0.00000000000E+000
+4.95777043650E+006, -2.43651083238E+001, +0.00000000000E+000
+4.95777137400E+006, -2.43971862215E+001, +0.00000000000E+000
+4.95777231150E+006, -2.44271187439E+001, +0.00000000000E+000
+4.95777324900E+006, -2.44587737973E+001, +0.00000000000E+000
+4.95777418650E+006, -2.44916587733E+001, +0.00000000000E+000
+4.95777512400E+006, -2.45227819869E+001, +0.00000000000E+000
+4.95777606150E+006, -2.45534860786E+001, +0.00000000000E+000
+4.95777699900E+006, -2.45848035030E+001, +0.00000000000E+000
+4.95777793650E+006, -2.46165415654E+001, +0.00000000000E+000
+4.95777887400E+006, -2.46499267769E+001, +0.00000000000E+000
+4.95777981150E+006, -2.46830316913E+001, +0.00000000000E+000
+4.95778074900E+006, -2.47136679349E+001, +0.00000000000E+000
+4.95778168650E+006, -2.47460639558E+001, +0.00000000000E+000
+4.95778262400E+006, -2.47776066616E+001, +0.00000000000E+000
+4.95778356150E+006, -2.48132617695E+001, +0.00000000000E+000
+4.95778449900E+006, -2.48438699488E+001, +0.00000000000E+000
+4.95778543650E+006, -2.48770530843E+001, +0.00000000000E+000
+4.95778637400E+006, -2.49091459744E+001, +0.00000000000E+000
+4.95778731150E+006, -2.49426703645E+001, +0.00000000000E+000
+4.95778824900E+006, -2.49764389835E+001, +0.00000000000E+000
+4.95778918650E+006, -2.50084090310E+001, +0.00000000000E+000
+4.95779012400E+006, -2.50428946130E+001, +0.00000000000E+000
+4.95779106150E+006, -2.50758024613E+001, +0.00000000000E+000
+4.95779199900E+006, -2.51086633091E+001, +0.00000000000E+000
+4.95779293650E+006, -2.51432295897E+001, +0.00000000000E+000
+4.95779387400E+006, -2.51772423449E+001, +0.00000000000E+000
+4.95779481150E+006, -2.52106360329E+001, +0.00000000000E+000
+4.95779574900E+006, -2.52452443337E+001, +0.00000000000E+000
+4.95779668650E+006, -2.52793569265E+001, +0.00000000000E+000
+4.95779762400E+006, -2.53132144524E+001, +0.00000000000E+000
+4.95779856150E+006, -2.53463601749E+001, +0.00000000000E+000
+4.95779949900E+006, -2.53813079668E+001, +0.00000000000E+000
+4.95780043650E+006, -2.54157725335E+001, +0.00000000000E+000
+4.95780137400E+006, -2.54492603277E+001, +0.00000000000E+000
+4.95780231150E+006, -2.54833142575E+001, +0.00000000000E+000
+4.95780324900E+006, -2.55182399213E+001, +0.00000000000E+000
+4.95780418650E+006, -2.55541773824E+001, +0.00000000000E+000
+4.95780512400E+006, -2.55885152496E+001, +0.00000000000E+000
+4.95780606150E+006, -2.56237690038E+001, +0.00000000000E+000
+4.95780699900E+006, -2.56576659379E+001, +0.00000000000E+000
+4.95780793650E+006, -2.56943336570E+001, +0.00000000000E+000
+4.95780887400E+006, -2.57290965316E+001, +0.00000000000E+000
+4.95780981150E+006, -2.57639154396E+001, +0.00000000000E+000
+4.95781074900E+006, -2.57997761781E+001, +0.00000000000E+000
+4.95781168650E+006, -2.58364009670E+001, +0.00000000000E+000
+4.95781262400E+006, -2.58713343812E+001, +0.00000000000E+000
+4.95781356150E+006, -2.59086371794E+001, +0.00000000000E+000
+4.95781449900E+006, -2.59428720450E+001, +0.00000000000E+000
+4.95781543650E+006, -2.59790037566E+001, +0.00000000000E+000
+4.95781637400E+006, -2.60158063293E+001, +0.00000000000E+000
+4.95781731150E+006, -2.60515509097E+001, +0.00000000000E+000
+4.95781824900E+006, -2.60878784687E+001, +0.00000000000E+000
+4.95781918650E+006, -2.61247162468E+001, +0.00000000000E+000
+4.95782012400E+006, -2.61609715231E+001, +0.00000000000E+000
+4.95782106150E+006, -2.61978224327E+001, +0.00000000000E+000
+4.95782199900E+006, -2.62349618008E+001, +0.00000000000E+000
+4.95782293650E+006, -2.62725802103E+001, +0.00000000000E+000
+4.95782387400E+006, -2.63104056707E+001, +0.00000000000E+000
+4.95782481150E+006, -2.63476209300E+001, +0.00000000000E+000
+4.95782574900E+006, -2.63849005669E+001, +0.00000000000E+000
+4.95782668650E+006, -2.64206176050E+001, +0.00000000000E+000
+4.95782762400E+006, -2.64586276883E+001, +0.00000000000E+000
+4.95782856150E+006, -2.64962324339E+001, +0.00000000000E+000
+4.95782949900E+006, -2.65346386043E+001, +0.00000000000E+000
+4.95783043650E+006, -2.65735071272E+001, +0.00000000000E+000
+4.95783137400E+006, -2.66104828137E+001, +0.00000000000E+000
+4.95783231150E+006, -2.66509574089E+001, +0.00000000000E+000
+4.95783324900E+006, -2.66883624240E+001, +0.00000000000E+000
+4.95783418650E+006, -2.67283992271E+001, +0.00000000000E+000
+4.95783512400E+006, -2.67655895416E+001, +0.00000000000E+000
+4.95783606150E+006, -2.68047201256E+001, +0.00000000000E+000
+4.95783699900E+006, -2.68431863683E+001, +0.00000000000E+000
+4.95783793650E+006, -2.68819508551E+001, +0.00000000000E+000
+4.95783887400E+006, -2.69205709535E+001, +0.00000000000E+000
+4.95783981150E+006, -2.69596140211E+001, +0.00000000000E+000
+4.95784074900E+006, -2.70006232151E+001, +0.00000000000E+000
+4.95784168650E+006, -2.70409582100E+001, +0.00000000000E+000
+4.95784262400E+006, -2.70786575039E+001, +0.00000000000E+000
+4.95784356150E+006, -2.71195353602E+001, +0.00000000000E+000
+4.95784449900E+006, -2.71587898350E+001, +0.00000000000E+000
+4.95784543650E+006, -2.72005970146E+001, +0.00000000000E+000
+4.95784637400E+006, -2.72383680200E+001, +0.00000000000E+000
+4.95784731150E+006, -2.72791177667E+001, +0.00000000000E+000
+4.95784824900E+006, -2.73211257854E+001, +0.00000000000E+000
+4.95784918650E+006, -2.73599409512E+001, +0.00000000000E+000
+4.95785012400E+006, -2.74019414546E+001, +0.00000000000E+000
+4.95785106150E+006, -2.74431778638E+001, +0.00000000000E+000
+4.95785199900E+006, -2.74846170965E+001, +0.00000000000E+000
+4.95785293650E+006, -2.75250562156E+001, +0.00000000000E+000
+4.95785387400E+006, -2.75662386039E+001, +0.00000000000E+000
+4.95785481150E+006, -2.76084907917E+001, +0.00000000000E+000
+4.95785574900E+006, -2.76499916793E+001, +0.00000000000E+000
+4.95785668650E+006, -2.76913474061E+001, +0.00000000000E+000
+4.95785762400E+006, -2.77348981305E+001, +0.00000000000E+000
+4.95785856150E+006, -2.77763917195E+001, +0.00000000000E+000
+4.95785949900E+006, -2.78178653208E+001, +0.00000000000E+000
+4.95786043650E+006, -2.78607529303E+001, +0.00000000000E+000
+4.95786137400E+006, -2.79034255547E+001, +0.00000000000E+000
+4.95786231150E+006, -2.79470114854E+001, +0.00000000000E+000
+4.95786324900E+006, -2.79882117833E+001, +0.00000000000E+000
+4.95786418650E+006, -2.80321969330E+001, +0.00000000000E+000
+4.95786512400E+006, -2.80733770000E+001, +0.00000000000E+000
+4.95786606150E+006, -2.81178662981E+001, +0.00000000000E+000
+4.95786699900E+006, -2.81606615074E+001, +0.00000000000E+000
+4.95786793650E+006, -2.82053184304E+001, +0.00000000000E+000
+4.95786887400E+006, -2.82470223985E+001, +0.00000000000E+000
+4.95786981150E+006, -2.82919427135E+001, +0.00000000000E+000
+4.95787074900E+006, -2.83351648167E+001, +0.00000000000E+000
+4.95787168650E+006, -2.83800779488E+001, +0.00000000000E+000
+4.95787262400E+006, -2.84247929054E+001, +0.00000000000E+000
+4.95787356150E+006, -2.84693785553E+001, +0.00000000000E+000
+4.95787449900E+006, -2.85118761345E+001, +0.00000000000E+000
+4.95787543650E+006, -2.85575075376E+001, +0.00000000000E+000
+4.95787637400E+006, -2.86030199615E+001, +0.00000000000E+000
+4.95787731150E+006, -2.86468533802E+001, +0.00000000000E+000
+4.95787824900E+006, -2.86935960994E+001, +0.00000000000E+000
+4.95787918650E+006, -2.87373160003E+001, +0.00000000000E+000
+4.95788012400E+006, -2.87847458541E+001, +0.00000000000E+000
+4.95788106150E+006, -2.88291810874E+001, +0.00000000000E+000
+4.95788199900E+006, -2.88754277264E+001, +0.00000000000E+000
+4.95788293650E+006, -2.89194483232E+001, +0.00000000000E+000
+4.95788387400E+006, -2.89673710496E+001, +0.00000000000E+000
+4.95788481150E+006, -2.90129611698E+001, +0.00000000000E+000
+4.95788574900E+006, -2.90596398358E+001, +0.00000000000E+000
+4.95788668650E+006, -2.91054500416E+001, +0.00000000000E+000
+4.95788762400E+006, -2.91534791685E+001, +0.00000000000E+000
+4.95788856150E+006, -2.92014023884E+001, +0.00000000000E+000
+4.95788949900E+006, -2.92478258897E+001, +0.00000000000E+000
+4.95789043650E+006, -2.92942140780E+001, +0.00000000000E+000
+4.95789137400E+006, -2.93424549462E+001, +0.00000000000E+000
+4.95789231150E+006, -2.93906888692E+001, +0.00000000000E+000
+4.95789324900E+006, -2.94384783575E+001, +0.00000000000E+000
+4.95789418650E+006, -2.94874305278E+001, +0.00000000000E+000
+4.95789512400E+006, -2.95362521000E+001, +0.00000000000E+000
+4.95789606150E+006, -2.95818868485E+001, +0.00000000000E+000
+4.95789699900E+006, -2.96292261483E+001, +0.00000000000E+000
+4.95789793650E+006, -2.96811628323E+001, +0.00000000000E+000
+4.95789887400E+006, -2.97283475247E+001, +0.00000000000E+000
+4.95789981150E+006, -2.97775988004E+001, +0.00000000000E+000
+4.95790074900E+006, -2.98265708311E+001, +0.00000000000E+000
+4.95790168650E+006, -2.98767616033E+001, +0.00000000000E+000
+4.95790262400E+006, -2.99257789527E+001, +0.00000000000E+000
+4.95790356150E+006, -2.99751472346E+001, +0.00000000000E+000
+4.95790449900E+006, -3.00256184009E+001, +0.00000000000E+000
+4.95790543650E+006, -3.00768966925E+001, +0.00000000000E+000
+4.95790637400E+006, -3.01268060679E+001, +0.00000000000E+000
+4.95790731150E+006, -3.01786830187E+001, +0.00000000000E+000
+4.95790824900E+006, -3.02295558594E+001, +0.00000000000E+000
+4.95790918650E+006, -3.02794727814E+001, +0.00000000000E+000
+4.95791012400E+006, -3.03300370967E+001, +0.00000000000E+000
+4.95791106150E+006, -3.03810250578E+001, +0.00000000000E+000
+4.95791199900E+006, -3.04332266922E+001, +0.00000000000E+000
+4.95791293650E+006, -3.04831987896E+001, +0.00000000000E+000
+4.95791387400E+006, -3.05357978992E+001, +0.00000000000E+000
+4.95791481150E+006, -3.05892421520E+001, +0.00000000000E+000
+4.95791574900E+006, -3.06399345620E+001, +0.00000000000E+000
+4.95791668650E+006, -3.06942018464E+001, +0.00000000000E+000
+4.95791762400E+006, -3.07442469779E+001, +0.00000000000E+000
+4.95791856150E+006, -3.07991181572E+001, +0.00000000000E+000
+4.95791949900E+006, -3.08515504416E+001, +0.00000000000E+000
+4.95792043650E+006, -3.09052113365E+001, +0.00000000000E+000
+4.95792137400E+006, -3.09576694082E+001, +0.00000000000E+000
+4.95792231150E+006, -3.10121032536E+001, +0.00000000000E+000
+4.95792324900E+006, -3.10655233534E+001, +0.00000000000E+000
+4.95792418650E+006, -3.11188582597E+001, +0.00000000000E+000
+4.95792512400E+006, -3.11737663823E+001, +0.00000000000E+000
+4.95792606150E+006, -3.12282504488E+001, +0.00000000000E+000
+4.95792699900E+006, -3.12846347255E+001, +0.00000000000E+000
+4.95792793650E+006, -3.13374264041E+001, +0.00000000000E+000
+4.95792887400E+006, -3.13931876822E+001, +0.00000000000E+000
+4.95792981150E+006, -3.14483415394E+001, +0.00000000000E+000
+4.95793074900E+006, -3.15048309823E+001, +0.00000000000E+000
+4.95793168650E+006, -3.15609999637E+001, +0.00000000000E+000
+4.95793262400E+006, -3.16156010102E+001, +0.00000000000E+000
+4.95793356150E+006, -3.16715635922E+001, +0.00000000000E+000
+4.95793449900E+006, -3.17292849361E+001, +0.00000000000E+000
+4.95793543650E+006, -3.17859463513E+001, +0.00000000000E+000
+4.95793637400E+006, -3.18420919073E+001, +0.00000000000E+000
+4.95793731150E+006, -3.18991681261E+001, +0.00000000000E+000
+4.95793824900E+006, -3.19570604534E+001, +0.00000000000E+000
+4.95793918650E+006, -3.20132826911E+001, +0.00000000000E+000
+4.95794012400E+006, -3.20728115938E+001, +0.00000000000E+000
+4.95794106150E+006, -3.21293779216E+001, +0.00000000000E+000
+4.95794199900E+006, -3.21877959491E+001, +0.00000000000E+000
+4.95794293650E+006, -3.22459716725E+001, +0.00000000000E+000
+4.95794387400E+006, -3.23062319516E+001, +0.00000000000E+000
+4.95794481150E+006, -3.23637121077E+001, +0.00000000000E+000
+4.95794574900E+006, -3.24229311196E+001, +0.00000000000E+000
+4.95794668650E+006, -3.24827706040E+001, +0.00000000000E+000
+4.95794762400E+006, -3.25416875404E+001, +0.00000000000E+000
+4.95794856150E+006, -3.26008711474E+001, +0.00000000000E+000
+4.95794949900E+006, -3.26624480635E+001, +0.00000000000E+000
+4.95795043650E+006, -3.27218658967E+001, +0.00000000000E+000
+4.95795137400E+006, -3.27837439575E+001, +0.00000000000E+000
+4.95795231150E+006, -3.28433127716E+001, +0.00000000000E+000
+4.95795324900E+006, -3.29043014521E+001, +0.00000000000E+000
+4.95795418650E+006, -3.29646590651E+001, +0.00000000000E+000
+4.95795512400E+006, -3.30265076613E+001, +0.00000000000E+000
+4.95795606150E+006, -3.30887980421E+001, +0.00000000000E+000
+4.95795699900E+006, -3.31508518687E+001, +0.00000000000E+000
+4.95795793650E+006, -3.32138016300E+001, +0.00000000000E+000
+4.95795887400E+006, -3.32759401596E+001, +0.00000000000E+000
+4.95795981150E+006, -3.33384867856E+001, +0.00000000000E+000
+4.95796074900E+006, -3.33994929556E+001, +0.00000000000E+000
+4.95796168650E+006, -3.34652788264E+001, +0.00000000000E+000
+4.95796262400E+006, -3.35284904617E+001, +0.00000000000E+000
+4.95796356150E+006, -3.35918226184E+001, +0.00000000000E+000
+4.95796449900E+006, -3.36564928870E+001, +0.00000000000E+000
+4.95796543650E+006, -3.37203644533E+001, +0.00000000000E+000
+4.95796637400E+006, -3.37856002901E+001, +0.00000000000E+000
+4.95796731150E+006, -3.38498263496E+001, +0.00000000000E+000
+4.95796824900E+006, -3.39129463938E+001, +0.00000000000E+000
+4.95796918650E+006, -3.39798955984E+001, +0.00000000000E+000
+4.95797012400E+006, -3.40468849859E+001, +0.00000000000E+000
+4.95797106150E+006, -3.41117385438E+001, +0.00000000000E+000
+4.95797199900E+006, -3.41791981328E+001, +0.00000000000E+000
+4.95797293650E+006, -3.42447017467E+001, +0.00000000000E+000
+4.95797387400E+006, -3.43120440098E+001, +0.00000000000E+000
+4.95797481150E+006, -3.43791313651E+001, +0.00000000000E+000
+4.95797574900E+006, -3.44451197423E+001, +0.00000000000E+000
+4.95797668650E+006, -3.45137722595E+001, +0.00000000000E+000
+4.95797762400E+006, -3.45814391785E+001, +0.00000000000E+000
+4.95797856150E+006, -3.46497963967E+001, +0.00000000000E+000
+4.95797949900E+006, -3.47171431026E+001, +0.00000000000E+000
+4.95798043650E+006, -3.47864506696E+001, +0.00000000000E+000
+4.95798137400E+006, -3.48546177838E+001, +0.00000000000E+000
+4.95798231150E+006, -3.49259634698E+001, +0.00000000000E+000
+4.95798324900E+006, -3.49952953252E+001, +0.00000000000E+000
+4.95798418650E+006, -3.50649843305E+001, +0.00000000000E+000
+4.95798512400E+006, -3.51346579300E+001, +0.00000000000E+000
+4.95798606150E+006, -3.52063811167E+001, +0.00000000000E+000
+4.95798699900E+006, -3.52754409944E+001, +0.00000000000E+000
+4.95798793650E+006, -3.53467199235E+001, +0.00000000000E+000
+4.95798887400E+006, -3.54186758755E+001, +0.00000000000E+000
+4.95798981150E+006, -3.54905982044E+001, +0.00000000000E+000
+4.95799074900E+006, -3.55630002524E+001, +0.00000000000E+000
