"# Channel 1"
"# Trace 2"
Frequency, Formatted Data, Formatted Data
+4.95769074900E+006, -2.56651283443E+001, +0.00000000000E+000
+4.95769168650E+006, -2.56481614277E+001, +0.00000000000E+000
+4.95769262400E+006, -2.56755706573E+001, +0.00000000000E+000
+4.95769356150E+006, -2.57043018725E+001, +0.00000000000E+000
+4.95769449900E+006, -2.57345304156E+001, +0.00000000000E+000
+4.95769543650E+006, -2.57618781775E+001, +0.00000000000E+000
+4.95769637400E+006, -2.57905489505E+001, +0.00000000000E+000
+4.95769731150E+006, -2.58232426568E+001, +0.00000000000E+000
+4.95769824900E+006, -2.58552719219E+001, +0.00000000000E+000
+4.95769918650E+006, -2.58800747613E+001, +0.00000000000E+000
+4.95770012400E+006, -2.59111033762E+001, +0.00000000000E+000
+4.95770106150E+006, -2.59450987130E+001, +0.00000000000E+000
+4.95770199900E+006, -2.59717424227E+001, +0.00000000000E+000
+4.95770293650E+006, -2.60008537884E+001, +0.00000000000E+000
+4.95770387400E+006, -2.60317794510E+001, +0.00000000000E+000
+4.95770481150E+006, -2.60593175143E+001, +0.00000000000E+000
+4.95770574900E+006, -2.60916201605E+001, +0.00000000000E+000
+4.95770668650E+006, -2.61190578588E+001, +0.00000000000E+000
+4.95770762400E+006, -2.61472593442E+001, +0.00000000000E+000
+4.95770856150E+006, -2.61799658184E+001, +0.00000000000E+000
+4.95770949900E+006, -2.62099869800E+001, +0.00000000000E+000
+4.95771043650E+006, -2.62368944444E+001, +0.00000000000E+000
+4.95771137400E+006, -2.62692932234E+001, +0.00000000000E+000
+4.95771231150E+006, -2.63009521387E+001, +0.00000000000E+000
+4.95771324900E+006, -2.63296364286E+001, +0.00000000000E+000
+4.95771418650E+006, -2.63621696929E+001, +0.00000000000E+000
+4.95771512400E+006, -2.63906847944E+001, +0.00000000000E+000
+4.95771606150E+006, -2.64225774590E+001, +0.00000000000E+000
+4.95771699900E+006, -2.64543662610E+001, +0.00000000000E+000
+4.95771793650E+006, -2.64830299590E+001, +0.00000000000E+000
+4.95771887400E+006, -2.65179159279E+001, +0.00000000000E+000
+4.95771981150E+006, -2.65467750334E+001, +0.00000000000E+000
+4.95772074900E+006, -2.65777641001E+001, +0.00000000000E+000
+4.95772168650E+006, -2.66097444115E+001, +0.00000000000E+000
+4.95772262400E+006, -2.66408759685E+001, +0.00000000000E+000
+4.95772356150E+006, -2.66722797479E+001, +0.00000000000E+000
+4.95772449900E+006, -2.67020867770E+001, +0.00000000000E+000
+4.95772543650E+006, -2.67346828850E+001, +0.00000000000E+000
+4.95772637400E+006, -2.67653497367E+001, +0.00000000000E+000
+4.95772731150E+006, -2.67963988184E+001, +0.00000000000E+000
+4.95772824900E+006, -2.68287068234E+001, +0.00000000000E+000
+4.95772918650E+006, -2.68614648521E+001, +0.00000000000E+000
+4.95773012400E+006, -2.68940629312E+001, +0.00000000000E+000
+4.95773106150E+006, -2.69271250210E+001, +0.00000000000E+000
+4.95773199900E+006, -2.69561057163E+001, +0.00000000000E+000
+4.95773293650E+006, -2.69902364819E+001, +0.00000000000E+000
+4.95773387400E+006, -2.70222210318E+001, +0.00000000000E+000
+4.95773481150E+006, -2.70555367213E+001, +0.00000000000E+000
+4.95773574900E+006, -2.70892097686E+001, +0.00000000000E+000
+4.95773668650E+006, -2.71205878364E+001, +0.00000000000E+000
+4.95773762400E+006, -2.71517973625E+001, +0.00000000000E+000
+4.95773856150E+006, -2.71861476698E+001, +0.00000000000E+000
+4.95773949900E+006, -2.72201639253E+001, +0.00000000000E+000
+4.95774043650E+006, -2.72523361525E+001, +0.00000000000E+000
+4.95774137400E+006, -2.72856144242E+001, +0.00000000000E+000
+4.95774231150E+006, -2.73171145876E+001, +0.00000000000E+000
+4.95774324900E+006, -2.73509014439E+001, +0.00000000000E+000
+4.95774418650E+006, -2.73871146310E+001, +0.00000000000E+000
+4.95774512400E+006, -2.74191756691E+001, +0.00000000000E+000
+4.95774606150E+006, -2.74525157554E+001, +0.00000000000E+000
+4.95774699900E+006, -2.74876232889E+001, +0.00000000000E+000
+4.95774793650E+006, -2.75208062068E+001, +0.00000000000E+000
+4.95774887400E+006, -2.75535151084E+001, +0.00000000000E+000
+4.95774981150E+006, -2.75929198032E+001, +0.00000000000E+000
+4.95775074900E+006, -2.76254781315E+001, +0.00000000000E+000
+4.95775168650E+006, -2.76591748723E+001, +0.00000000000E+000
+4.95775262400E+006, -2.76960087265E+001, +0.00000000000E+000
+4.95775356150E+006, -2.77298370024E+001, +0.00000000000E+000
+4.95775449900E+006, -2.77652236853E+001, +0.00000000000E+000
+4.95775543650E+006, -2.77973992803E+001, +0.00000000000E+000
+4.95775637400E+006, -2.78336112211E+001, +0.00000000000E+000
+4.95775731150E+006, -2.78688908418E+001, +0.00000000000E+000
+4.95775824900E+006, -2.79046308809E+001, +0.00000000000E+000
+4.95775918650E+006, -2.79390340304E+001, +0.00000000000E+000
+4.95776012400E+006, -2.79751429423E+001, +0.00000000000E+000
+4.95776106150E+006, -2.80115536939E+001, +0.00000000000E+000
+4.95776199900E+006, -2.80441971554E+001, +0.00000000000E+000
+4.95776293650E+006, -2.80821916639E+001, +0.00000000000E+000
+4.95776387400E+006, -2.81173341255E+001, +0.00000000000E+000
+4.95776481150E+006, -2.81521633159E+001, +0.00000000000E+000
+4.95776574900E+006, -2.81891189101E+001, +0.00000000000E+000
+4.95776668650E+006, -2.82278407308E+001, +0.00000000000E+000
+4.95776762400E+006, -2.82609865058E+001, +0.00000000000E+000
+4.95776856150E+006, -2.82973914750E+001, +0.00000000000E+000
+4.95776949900E+006, -2.83367964872E+001, +0.00000000000E+000
+4.95777043650E+006, -2.83728578766E+001, +0.00000000000E+000
+4.95777137400E+006, -2.84093209887E+001, +0.00000000000E+000
+4.95777231150E+006, -2.84474106683E+001, +0.00000000000E+000
+4.95777324900E+006, -2.84824608254E+001, +0.00000000000E+000
+4.95777418650E+006, -2.85208031105E+001, +0.00000000000E+000
+4.95777512400E+006, -2.85543684416E+001, +0.00000000000E+000
+4.95777606150E+006, -2.85942276721E+001, +0.00000000000E+000
+4.95777699900E+006, -2.86322687196E+001, +0.00000000000E+000
+4.95777793650E+006, -2.86683541763E+001, +0.00000000000E+000
+4.95777887400E+006, -2.87064954234E+001, +0.00000000000E+000
+4.95777981150E+006, -2.87453702524E+001, +0.00000000000E+000
+4.95778074900E+006, -2.87837381620E+001, +0.00000000000E+000
+4.95778168650E+006, -2.88193695674E+001, +0.00000000000E+000
+4.95778262400E+006, -2.88597058038E+001, +0.00000000000E+000
+4.95778356150E+006, -2.88969676444E+001, +0.00000000000E+000
+4.95778449900E+006, -2.89356196489E+001, +0.00000000000E+000
+4.95778543650E+006, -2.89730464466E+001, +0.00000000000E+000
+4.95778637400E+006, -2.90119519540E+001, +0.00000000000E+000
+4.95778731150E+006, -2.90522207649E+001, +0.00000000000E+000
+4.95778824900E+006, -2.90920371588E+001, +0.00000000000E+000
+4.95778918650E+006, -2.91296863916E+001, +0.00000000000E+000
+4.95779012400E+006, -2.91705783969E+001, +0.00000000000E+000
+4.95779106150E+006, -2.92081328746E+001, +0.00000000000E+000
+4.95779199900E+006, -2.92448004169E+001, +0.00000000000E+000
+4.95779293650E+006, -2.92864636277E+001, +0.00000000000E+000
+4.95779387400E+006, -2.93287862821E+001, +0.00000000000E+000
+4.95779481150E+006, -2.93643628097E+001, +0.00000000000E+000
+4.95779574900E+006, -2.94075695306E+001, +0.00000000000E+000
+4.95779668650E+006, -2.94469966730E+001, +0.00000000000E+000
+4.95779762400E+006, -2.94873091547E+001, +0.00000000000E+000
+4.95779856150E+006, -2.95266126017E+001, +0.00000000000E+000
+4.95779949900E+006, -2.95691410295E+001, +0.00000000000E+000
+4.95780043650E+006, -2.96121176472E+001, +0.00000000000E+000
+4.95780137400E+006, -2.96509125183E+001, +0.00000000000E+000
+4.95780231150E+006, -2.96926468224E+001, +0.00000000000E+000
+4.95780324900E+006, -2.97338737025E+001, +0.00000000000E+000
+4.95780418650E+006, -2.97771326884E+001, +0.00000000000E+000
+4.95780512400E+006, -2.98191202136E+001, +0.00000000000E+000
+4.95780606150E+006, -2.98598690716E+001, +0.00000000000E+000
+4.95780699900E+006, -2.99007694056E+001, +0.00000000000E+000
+4.95780793650E+006, -2.99418850262E+001, +0.00000000000E+000
+4.95780887400E+006, -2.99848476161E+001, +0.00000000000E+000
+4.95780981150E+006, -3.00275008440E+001, +0.00000000000E+000
+4.95781074900E+006, -3.00672068384E+001, +0.00000000000E+000
+4.95781168650E+006, -3.01080616635E+001, +0.00000000000E+000
+4.95781262400E+006, -3.01536032576E+001, +0.00000000000E+000
+4.95781356150E+006, -3.02000411592E+001, +0.00000000000E+000
+4.95781449900E+006, -3.02381009811E+001, +0.00000000000E+000
+4.95781543650E+006, -3.02837390658E+001, +0.00000000000E+000
+4.95781637400E+006, -3.03292967344E+001, +0.00000000000E+000
+4.95781731150E+006, -3.03698458692E+001, +0.00000000000E+000
+4.95781824900E+006, -3.04162448307E+001, +0.00000000000E+000
+4.95781918650E+006, -3.04585682370E+001, +0.00000000000E+000
+4.95782012400E+006, -3.05013385067E+001, +0.00000000000E+000
+4.95782106150E+006, -3.05476203879E+001, +0.00000000000E+000
+4.95782199900E+006, -3.05923032378E+001, +0.00000000000E+000
+4.95782293650E+006, -3.06352190520E+001, +0.00000000000E+000
+4.95782387400E+006, -3.06786658917E+001, +0.00000000000E+000
+4.95782481150E+006, -3.07242578951E+001, +0.00000000000E+000
+4.95782574900E+006, -3.07684627711E+001, +0.00000000000E+000
+4.95782668650E+006, -3.08131289110E+001, +0.00000000000E+000
+4.95782762400E+006, -3.08580634958E+001, +0.00000000000E+000
+4.95782856150E+006, -3.09017474478E+001, +0.00000000000E+000
+4.95782949900E+006, -3.09520322004E+001, +0.00000000000E+000
+4.95783043650E+006, -3.09982955090E+001, +0.00000000000E+000
+4.95783137400E+006, -3.10450476068E+001, +0.00000000000E+000
+4.95783231150E+006, -3.10900452081E+001, +0.00000000000E+000
+4.95783324900E+006, -3.11348313780E+001, +0.00000000000E+000
+4.95783418650E+006, -3.11823368171E+001, +0.00000000000E+000
+4.95783512400E+006, -3.12310756280E+001, +0.00000000000E+000
+4.95783606150E+006, -3.12763790472E+001, +0.00000000000E+000
+4.95783699900E+006, -3.13228094893E+001, +0.00000000000E+000
+4.95783793650E+006, -3.13708289547E+001, +0.00000000000E+000
+4.95783887400E+006, -3.14162143926E+001, +0.00000000000E+000
+4.95783981150E+006, -3.14638233636E+001, +0.00000000000E+000
+4.95784074900E+006, -3.15143092295E+001, +0.00000000000E+000
+4.95784168650E+006, -3.15597872556E+001, +0.00000000000E+000
+4.95784262400E+006, -3.16085410376E+001, +0.00000000000E+000
+4.95784356150E+006, -3.16573894649E+001, +0.00000000000E+000
+4.95784449900E+006, -3.17057881620E+001, +0.00000000000E+000
+4.95784543650E+006, -3.17522811755E+001, +0.00000000000E+000
+4.95784637400E+006, -3.18021594227E+001, +0.00000000000E+000
+4.95784731150E+006, -3.18530764079E+001, +0.00000000000E+000
+4.95784824900E+006, -3.19029640006E+001, +0.00000000000E+000
+4.95784918650E+006, -3.19520886511E+001, +0.00000000000E+000
+4.95785012400E+006, -3.19998450964E+001, +0.00000000000E+000
+4.95785106150E+006, -3.20538331142E+001, +0.00000000000E+000
+4.95785199900E+006, -3.21036495595E+001, +0.00000000000E+000
+4.95785293650E+006, -3.21531759025E+001, +0.00000000000E+000
+4.95785387400E+006, -3.22046591375E+001, +0.00000000000E+000
+4.95785481150E+006, -3.22549407247E+001, +0.00000000000E+000
+4.95785574900E+006, -3.23025750926E+001, +0.00000000000E+000
+4.95785668650E+006, -3.23546078450E+001, +0.00000000000E+000
+4.95785762400E+006, -3.24070169527E+001, +0.00000000000E+000
+4.95785856150E+006, -3.24595579314E+001, +0.00000000000E+000
+4.95785949900E+006, -3.25120702701E+001, +0.00000000000E+000
+4.95786043650E+006, -3.25608285596E+001, +0.00000000000E+000
+4.95786137400E+006, -3.26132148387E+001, +0.00000000000E+000
+4.95786231150E+006, -3.26680775010E+001, +0.00000000000E+000
+4.95786324900E+006, -3.27193413610E+001, +0.00000000000E+000
+4.95786418650E+006, -3.27711841757E+001, +0.00000000000E+000
+4.95786512400E+006, -3.28238132526E+001, +0.00000000000E+000
+4.95786606150E+006, -3.28776935650E+001, +0.00000000000E+000
+4.95786699900E+006, -3.29314887118E+001, +0.00000000000E+000
+4.95786793650E+006, -3.29842108099E+001, +0.00000000000E+000
+4.95786887400E+006, -3.30396172874E+001, +0.00000000000E+000
+4.95786981150E+006, -3.30907999471E+001, +0.00000000000E+000
+4.95787074900E+006, -3.31479413172E+001, +0.00000000000E+000
+4.95787168650E+006, -3.32009143430E+001, +0.00000000000E+000
+4.95787262400E+006, -3.32540871670E+001, +0.00000000000E+000
+4.95787356150E+006, -3.33086302432E+001, +0.00000000000E+000
+4.95787449900E+006, -3.33633852703E+001, +0.00000000000E+000
+4.95787543650E+006, -3.34191473665E+001, +0.00000000000E+000
+4.95787637400E+006, -3.34773881073E+001, +0.00000000000E+000
+4.95787731150E+006, -3.35303798026E+001, +0.00000000000E+000
+4.95787824900E+006, -3.35865314900E+001, +0.00000000000E+000
+4.95787918650E+006, -3.36423430471E+001, +0.00000000000E+000
+4.95788012400E+006, -3.37003501892E+001, +0.00000000000E+000
+4.95788106150E+006, -3.37573429724E+001, +0.00000000000E+000
+4.95788199900E+006, -3.38140640039E+001, +0.00000000000E+000
+4.95788293650E+006, -3.38687954063E+001, +0.00000000000E+000
+4.95788387400E+006, -3.39254947563E+001, +0.00000000000E+000
+4.95788481150E+006, -3.39855076396E+001, +0.00000000000E+000
+4.95788574900E+006, -3.40443869178E+001, +0.00000000000E+000
+4.95788668650E+006, -3.41025055766E+001, +0.00000000000E+000
+4.95788762400E+006, -3.41595073985E+001, +0.00000000000E+000
+4.95788856150E+006, -3.42175055897E+001, +0.00000000000E+000
+4.95788949900E+006, -3.42771786576E+001, +0.00000000000E+000
+4.95789043650E+006, -3.43372564771E+001, +0.00000000000E+000
+4.95789137400E+006, -3.43960972079E+001, +0.00000000000E+000
+4.95789231150E+006, -3.44563626249E+001, +0.00000000000E+000
+4.95789324900E+006, -3.45134393738E+001, +0.00000000000E+000
+4.95789418650E+006, -3.45740450793E+001, +0.00000000000E+000
+4.95789512400E+006, -3.46355445735E+001, +0.00000000000E+000
+4.95789606150E+006, -3.46949813593E+001, +0.00000000000E+000
+4.95789699900E+006, -3.47551686129E+001, +0.00000000000E+000
+4.95789793650E+006, -3.48175809947E+001, +0.00000000000E+000
+4.95789887400E+006, -3.48784336239E+001, +0.00000000000E+000
+4.95789981150E+006, -3.49399639933E+001, +0.00000000000E+000
+4.95790074900E+006, -3.50046202431E+001, +0.00000000000E+000
+4.95790168650E+006, -3.50656852100E+001, +0.00000000000E+000
+4.95790262400E+006, -3.51277474194E+001, +0.00000000000E+000
+4.95790356150E+006, -3.51889756261E+001, +0.00000000000E+000
+4.95790449900E+006, -3.52498165717E+001, +0.00000000000E+000
+4.95790543650E+006, -3.53137645320E+001, +0.00000000000E+000
+4.95790637400E+006, -3.53780764350E+001, +0.00000000000E+000
+4.95790731150E+006, -3.54412305688E+001, +0.00000000000E+000
+4.95790824900E+006, -3.55059704854E+001, +0.00000000000E+000
+4.95790918650E+006, -3.55703403691E+001, +0.00000000000E+000
+4.95791012400E+006, -3.56347682354E+001, +0.00000000000E+000
+4.95791106150E+006, -3.56990444354E+001, +0.00000000000E+000
+4.95791199900E+006, -3.57688233401E+001, +0.00000000000E+000
+4.95791293650E+006, -3.58323968337E+001, +0.00000000000E+000
+4.95791387400E+006, -3.58977334154E+001, +0.00000000000E+000
+4.95791481150E+006, -3.59662848591E+001, +0.00000000000E+000
+4.95791574900E+006, -3.60315985217E+001, +0.00000000000E+000
+4.95791668650E+006, -3.60979444885E+001, +0.00000000000E+000
+4.95791762400E+006, -3.61688581927E+001, +0.00000000000E+000
+4.95791856150E+006, -3.62329778263E+001, +0.00000000000E+000
+4.95791949900E+006, -3.62974857382E+001, +0.00000000000E+000
+4.95792043650E+006, -3.63662358108E+001, +0.00000000000E+000
+4.95792137400E+006, -3.64345242788E+001, +0.00000000000E+000
+4.95792231150E+006, -3.65021655155E+001, +0.00000000000E+000
+4.95792324900E+006, -3.65714916821E+001, +0.00000000000E+000
+4.95792418650E+006, -3.66389035904E+001, +0.00000000000E+000
+4.95792512400E+006, -3.67075289610E+001, +0.00000000000E+000
+4.95792606150E+006, -3.67773432153E+001, +0.00000000000E+000
+4.95792699900E+006, -3.68469313566E+001, +0.00000000000E+000
+4.95792793650E+006, -3.69189330274E+001, +0.00000000000E+000
+4.95792887400E+006, -3.69907216507E+001, +0.00000000000E+000
+4.95792981150E+006, -3.70612080522E+001, +0.00000000000E+000
+4.95793074900E+006, -3.71300805342E+001, +0.00000000000E+000
+4.95793168650E+006, -3.72026451500E+001, +0.00000000000E+000
+4.95793262400E+006, -3.72773021146E+001, +0.00000000000E+000
+4.95793356150E+006, -3.73512857856E+001, +0.00000000000E+000
+4.95793449900E+006, -3.74239849399E+001, +0.00000000000E+000
+4.95793543650E+006, -3.74951972106E+001, +0.00000000000E+000
+4.95793637400E+006, -3.75692063251E+001, +0.00000000000E+000
+4.95793731150E+006, -3.76421255707E+001, +0.00000000000E+000
+4.95793824900E+006, -3.77143625510E+001, +0.00000000000E+000
+4.95793918650E+006, -3.77928265061E+001, +0.00000000000E+000
+4.95794012400E+006, -3.78660628612E+001, +0.00000000000E+000
+4.95794106150E+006, -3.79394460245E+001, +0.00000000000E+000
+4.95794199900E+006, -3.80167868422E+001, +0.00000000000E+000
+4.95794293650E+006, -3.80928171156E+001, +0.00000000000E+000
+4.95794387400E+006, -3.81729337161E+001, +0.00000000000E+000
+4.95794481150E+006, -3.82475739314E+001, +0.00000000000E+000
+4.95794574900E+006, -3.83247022942E+001, +0.00000000000E+000
+4.95794668650E+006, -3.83960925117E+001, +0.00000000000E+000
+4.95794762400E+006, -3.84767417356E+001, +0.00000000000E+000
+4.95794856150E+006, -3.85513189504E+001, +0.00000000000E+000
+4.95794949900E+006, -3.86331320054E+001, +0.00000000000E+000
+4.95795043650E+006, -3.87187377686E+001, +0.00000000000E+000
+4.95795137400E+006, -3.87929747668E+001, +0.00000000000E+000
+4.95795231150E+006, -3.88720185178E+001, +0.00000000000E+000
+4.95795324900E+006, -3.89524256724E+001, +0.00000000000E+000
+4.95795418650E+006, -3.90337728320E+001, +0.00000000000E+000
+4.95795512400E+006, -3.91139204534E+001, +0.00000000000E+000
+4.95795606150E+006, -3.91944309465E+001, +0.00000000000E+000
+4.95795699900E+006, -3.92743860599E+001, +0.00000000000E+000
+4.95795793650E+006, -3.93585228870E+001, +0.00000000000E+000
+4.95795887400E+006, -3.94402653177E+001, +0.00000000000E+000
+4.95795981150E+006, -3.95199419192E+001, +0.00000000000E+000
+4.95796074900E+006, -3.96070437328E+001, +0.00000000000E+000
+4.95796168650E+006, -3.96924487818E+001, +0.00000000000E+000
+4.95796262400E+006, -3.97718644499E+001, +0.00000000000E+000
+4.95796356150E+006, -3.98568587754E+001, +0.00000000000E+000
+4.95796449900E+006, -3.99416701961E+001, +0.00000000000E+000
+4.95796543650E+006, -4.00262154708E+001, +0.00000000000E+000
+4.95796637400E+006, -4.01127304267E+001, +0.00000000000E+000
+4.95796731150E+006, -4.01989357262E+001, +0.00000000000E+000
+4.95796824900E+006, -4.02826572034E+001, +0.00000000000E+000
+4.95796918650E+006, -4.03710904898E+001, +0.00000000000E+000
+4.95797012400E+006, -4.04597147218E+001, +0.00000000000E+000
+4.95797106150E+006, -4.05465402174E+001, +0.00000000000E+000
+4.95797199900E+006, -4.06335208672E+001, +0.00000000000E+000
+4.95797293650E+006, -4.07196712361E+001, +0.00000000000E+000
+4.95797387400E+006, -4.08057855874E+001, +0.00000000000E+000
+4.95797481150E+006, -4.08975770017E+001, +0.00000000000E+000
+4.95797574900E+006, -4.09876424532E+001, +0.00000000000E+000
+4.95797668650E+006, -4.10774667435E+001, +0.00000000000E+000
+4.95797762400E+006, -4.11728187332E+001, +0.00000000000E+000
+4.95797856150E+006, -4.12621420376E+001, +0.00000000000E+000
+4.95797949900E+006, -4.13522366200E+001, +0.00000000000E+000
+4.95798043650E+006, -4.14456962579E+001, +0.00000000000E+000
+4.95798137400E+006, -4.15387390070E+001, +0.00000000000E+000
+4.95798231150E+006, -4.16322399169E+001, +0.00000000000E+000
+4.95798324900E+006, -4.17276431818E+001, +0.00000000000E+000
+4.95798418650E+006, -4.18181158410E+001, +0.00000000000E+000
+4.95798512400E+006, -4.19136871699E+001, +0.00000000000E+000
+4.95798606150E+006, -4.20092717590E+001, +0.00000000000E+000
+4.95798699900E+006, -4.21049975217E+001, +0.00000000000E+000
+4.95798793650E+006, -4.21975518770E+001, +0.00000000000E+000
+4.95798887400E+006, -4.22971292530E+001, +0.00000000000E+000
+4.95798981150E+006, -4.23924005620E+001, +0.00000000000E+000
+4.95799074900E+006, -4.24877441834E+001, +0.00000000000E+000
