"# Channel 1"
"# Trace 2"
Frequency, Formatted Data, Formatted Data
+4.95769074900E+006, -2.57807160487E+001, +0.00000000000E+000
+4.95769168650E+006, -2.57622292883E+001, +0.00000000000E+000
+4.95769262400E+006, -2.57857788890E+001, +0.00000000000E+000
+4.95769356150E+006, -2.58130581216E+001, +0.00000000000E+000
+4.95769449900E+006, -2.58420900711E+001, +0.00000000000E+000
+4.95769543650E+006, -2.58734907454E+001, +0.00000000000E+000
+4.95769637400E+006, -2.59028626997E+001, +0.00000000000E+000
+4.95769731150E+006, -2.59309090572E+001, +0.00000000000E+000
+4.95769824900E+006, -2.59609312808E+001, +0.00000000000E+000
+4.95769918650E+006, -2.59920682254E+001, +0.00000000000E+000
+4.95770012400E+006, -2.60189460297E+001, +0.00000000000E+000
+4.95770106150E+006, -2.60500819862E+001, +0.00000000000E+000
+4.95770199900E+006, -2.60798266998E+001, +0.00000000000E+000
+4.95770293650E+006, -2.61086602837E+001, +0.00000000000E+000
+4.95770387400E+006, -2.61390971312E+001, +0.00000000000E+000
+4.95770481150E+006, -2.61686992818E+001, +0.00000000000E+000
+4.95770574900E+006, -2.62007408079E+001, +0.00000000000E+000
+4.95770668650E+006, -2.62310762988E+001, +0.00000000000E+000
+4.95770762400E+006, -2.62620480573E+001, +0.00000000000E+000
+4.95770856150E+006, -2.62930582991E+001, +0.00000000000E+000
+4.95770949900E+006, -2.63222245435E+001, +0.00000000000E+000
+4.95771043650E+006, -2.63523628636E+001, +0.00000000000E+000
+4.95771137400E+006, -2.63851066394E+001, +0.00000000000E+000
+4.95771231150E+006, -2.64142063943E+001, +0.00000000000E+000
+4.95771324900E+006, -2.64472682317E+001, +0.00000000000E+000
+4.95771418650E+006, -2.64780232155E+001, +0.00000000000E+000
+4.95771512400E+006, -2.65098562170E+001, +0.00000000000E+000
+4.95771606150E+006, -2.65401811326E+001, +0.00000000000E+000
+4.95771699900E+006, -2.65718516190E+001, +0.00000000000E+000
+4.95771793650E+006, -2.66029246344E+001, +0.00000000000E+000
+4.95771887400E+006, -2.66338048441E+001, +0.00000000000E+000
+4.95771981150E+006, -2.66657027722E+001, +0.00000000000E+000
+4.95772074900E+006, -2.66980829074E+001, +0.00000000000E+000
+4.95772168650E+006, -2.67308593802E+001, +0.00000000000E+000
+4.95772262400E+006, -2.67623627406E+001, +0.00000000000E+000
+4.95772356150E+006, -2.67943441097E+001, +0.00000000000E+000
+4.95772449900E+006, -2.68270438848E+001, +0.00000000000E+000
+4.95772543650E+006, -2.68582290551E+001, +0.00000000000E+000
+4.95772637400E+006, -2.68911719513E+001, +0.00000000000E+000
+4.95772731150E+006, -2.69247261370E+001, +0.00000000000E+000
+4.95772824900E+006, -2.69564099253E+001, +0.00000000000E+000
+4.95772918650E+006, -2.69888979713E+001, +0.00000000000E+000
+4.95773012400E+006, -2.70224532177E+001, +0.00000000000E+000
+4.95773106150E+006, -2.70553224255E+001, +0.00000000000E+000
+4.95773199900E+006, -2.70877000375E+001, +0.00000000000E+000
+4.95773293650E+006, -2.71207464769E+001, +0.00000000000E+000
+4.95773387400E+006, -2.71538441816E+001, +0.00000000000E+000
+4.95773481150E+006, -2.71861498826E+001, +0.00000000000E+000
+4.95773574900E+006, -2.72197101783E+001, +0.00000000000E+000
+4.95773668650E+006, -2.72548087219E+001, +0.00000000000E+000
+4.95773762400E+006, -2.72885097110E+001, +0.00000000000E+000
+4.95773856150E+006, -2.73216350542E+001, +0.00000000000E+000
+4.95773949900E+006, -2.73560861079E+001, +0.00000000000E+000
+4.95774043650E+006, -2.73900867785E+001, +0.00000000000E+000
+4.95774137400E+006, -2.74252490553E+001, +0.00000000000E+000
+4.95774231150E+006, -2.74578664153E+001, +0.00000000000E+000
+4.95774324900E+006, -2.74915167119E+001, +0.00000000000E+000
+4.95774418650E+006, -2.75281082033E+001, +0.00000000000E+000
+4.95774512400E+006, -2.75604136305E+001, +0.00000000000E+000
+4.95774606150E+006, -2.75957634100E+001, +0.00000000000E+000
+4.95774699900E+006, -2.76294550578E+001, +0.00000000000E+000
+4.95774793650E+006, -2.76660672622E+001, +0.00000000000E+000
+4.95774887400E+006, -2.77010226639E+001, +0.00000000000E+000
+4.95774981150E+006, -2.77351867733E+001, +0.00000000000E+000
+4.95775074900E+006, -2.77714038131E+001, +0.00000000000E+000
+4.95775168650E+006, -2.78073231570E+001, +0.00000000000E+000
+4.95775262400E+006, -2.78429163641E+001, +0.00000000000E+000
+4.95775356150E+006, -2.78795882678E+001, +0.00000000000E+000
+4.95775449900E+006, -2.79131008915E+001, +0.00000000000E+000
+4.95775543650E+006, -2.79512791896E+001, +0.00000000000E+000
+4.95775637400E+006, -2.79851063732E+001, +0.00000000000E+000
+4.95775731150E+006, -2.80215586180E+001, +0.00000000000E+000
+4.95775824900E+006, -2.80581265379E+001, +0.00000000000E+000
+4.95775918650E+006, -2.80942923631E+001, +0.00000000000E+000
+4.95776012400E+006, -2.81315343101E+001, +0.00000000000E+000
+4.95776106150E+006, -2.81679038154E+001, +0.00000000000E+000
+4.95776199900E+006, -2.82056928012E+001, +0.00000000000E+000
+4.95776293650E+006, -2.82426827739E+001, +0.00000000000E+000
+4.95776387400E+006, -2.82779541721E+001, +0.00000000000E+000
+4.95776481150E+006, -2.83145424757E+001, +0.00000000000E+000
+4.95776574900E+006, -2.83512278301E+001, +0.00000000000E+000
+4.95776668650E+006, -2.83892468859E+001, +0.00000000000E+000
+4.95776762400E+006, -2.84269046387E+001, +0.00000000000E+000
+4.95776856150E+006, -2.84627864760E+001, +0.00000000000E+000
+4.95776949900E+006, -2.85020120710E+001, +0.00000000000E+000
+4.95777043650E+006, -2.85400544792E+001, +0.00000000000E+000
+4.95777137400E+006, -2.85767045059E+001, +0.00000000000E+000
+4.95777231150E+006, -2.86157238713E+001, +0.00000000000E+000
+4.95777324900E+006, -2.86538078782E+001, +0.00000000000E+000
+4.95777418650E+006, -2.86911302218E+001, +0.00000000000E+000
+4.95777512400E+006, -2.87303664180E+001, +0.00000000000E+000
+4.95777606150E+006, -2.87690345714E+001, +0.00000000000E+000
+4.95777699900E+006, -2.88070582932E+001, +0.00000000000E+000
+4.95777793650E+006, -2.88459251481E+001, +0.00000000000E+000
+4.95777887400E+006, -2.88850125282E+001, +0.00000000000E+000
+4.95777981150E+006, -2.89251273392E+001, +0.00000000000E+000
+4.95778074900E+006, -2.89633850043E+001, +0.00000000000E+000
+4.95778168650E+006, -2.90034003371E+001, +0.00000000000E+000
+4.95778262400E+006, -2.90421338349E+001, +0.00000000000E+000
+4.95778356150E+006, -2.90820851119E+001, +0.00000000000E+000
+4.95778449900E+006, -2.91226610670E+001, +0.00000000000E+000
+4.95778543650E+006, -2.91622575867E+001, +0.00000000000E+000
+4.95778637400E+006, -2.92024451619E+001, +0.00000000000E+000
+4.95778731150E+006, -2.92421766780E+001, +0.00000000000E+000
+4.95778824900E+006, -2.92819214007E+001, +0.00000000000E+000
+4.95778918650E+006, -2.93248206574E+001, +0.00000000000E+000
+4.95779012400E+006, -2.93645652714E+001, +0.00000000000E+000
+4.95779106150E+006, -2.94048446695E+001, +0.00000000000E+000
+4.95779199900E+006, -2.94453638747E+001, +0.00000000000E+000
+4.95779293650E+006, -2.94874032441E+001, +0.00000000000E+000
+4.95779387400E+006, -2.95263683239E+001, +0.00000000000E+000
+4.95779481150E+006, -2.95685888359E+001, +0.00000000000E+000
+4.95779574900E+006, -2.96118323441E+001, +0.00000000000E+000
+4.95779668650E+006, -2.96534751119E+001, +0.00000000000E+000
+4.95779762400E+006, -2.96941545220E+001, +0.00000000000E+000
+4.95779856150E+006, -2.97367852761E+001, +0.00000000000E+000
+4.95779949900E+006, -2.97772996063E+001, +0.00000000000E+000
+4.95780043650E+006, -2.98213303584E+001, +0.00000000000E+000
+4.95780137400E+006, -2.98624569495E+001, +0.00000000000E+000
+4.95780231150E+006, -2.99053213374E+001, +0.00000000000E+000
+4.95780324900E+006, -2.99472621543E+001, +0.00000000000E+000
+4.95780418650E+006, -2.99909565317E+001, +0.00000000000E+000
+4.95780512400E+006, -3.00336924775E+001, +0.00000000000E+000
+4.95780606150E+006, -3.00770004556E+001, +0.00000000000E+000
+4.95780699900E+006, -3.01207342060E+001, +0.00000000000E+000
+4.95780793650E+006, -3.01638748844E+001, +0.00000000000E+000
+4.95780887400E+006, -3.02078914892E+001, +0.00000000000E+000
+4.95780981150E+006, -3.02511719487E+001, +0.00000000000E+000
+4.95781074900E+006, -3.02942505358E+001, +0.00000000000E+000
+4.95781168650E+006, -3.03393761344E+001, +0.00000000000E+000
+4.95781262400E+006, -3.03832944059E+001, +0.00000000000E+000
+4.95781356150E+006, -3.04297553833E+001, +0.00000000000E+000
+4.95781449900E+006, -3.04728378203E+001, +0.00000000000E+000
+4.95781543650E+006, -3.05177669122E+001, +0.00000000000E+000
+4.95781637400E+006, -3.05622053071E+001, +0.00000000000E+000
+4.95781731150E+006, -3.06077058470E+001, +0.00000000000E+000
+4.95781824900E+006, -3.06532991576E+001, +0.00000000000E+000
+4.95781918650E+006, -3.06992238544E+001, +0.00000000000E+000
+4.95782012400E+006, -3.07436383926E+001, +0.00000000000E+000
+4.95782106150E+006, -3.07911265046E+001, +0.00000000000E+000
+4.95782199900E+006, -3.08363278509E+001, +0.00000000000E+000
+4.95782293650E+006, -3.08815498962E+001, +0.00000000000E+000
+4.95782387400E+006, -3.09297698154E+001, +0.00000000000E+000
+4.95782481150E+006, -3.09751636790E+001, +0.00000000000E+000
+4.95782574900E+006, -3.10207539960E+001, +0.00000000000E+000
+4.95782668650E+006, -3.10684312847E+001, +0.00000000000E+000
+4.95782762400E+006, -3.11144720392E+001, +0.00000000000E+000
+4.95782856150E+006, -3.11629451937E+001, +0.00000000000E+000
+4.95782949900E+006, -3.12107534360E+001, +0.00000000000E+000
+4.95783043650E+006, -3.12582293014E+001, +0.00000000000E+000
+4.95783137400E+006, -3.13059072575E+001, +0.00000000000E+000
+4.95783231150E+006, -3.13543740398E+001, +0.00000000000E+000
+4.95783324900E+006, -3.14022842340E+001, +0.00000000000E+000
+4.95783418650E+006, -3.14499528632E+001, +0.00000000000E+000
+4.95783512400E+006, -3.14974655493E+001, +0.00000000000E+000
+4.95783606150E+006, -3.15468637506E+001, +0.00000000000E+000
+4.95783699900E+006, -3.15959160256E+001, +0.00000000000E+000
+4.95783793650E+006, -3.16451700848E+001, +0.00000000000E+000
+4.95783887400E+006, -3.16924874135E+001, +0.00000000000E+000
+4.95783981150E+006, -3.17434730404E+001, +0.00000000000E+000
+4.95784074900E+006, -3.17938424350E+001, +0.00000000000E+000
+4.95784168650E+006, -3.18429939608E+001, +0.00000000000E+000
+4.95784262400E+006, -3.18934952660E+001, +0.00000000000E+000
+4.95784356150E+006, -3.19421177428E+001, +0.00000000000E+000
+4.95784449900E+006, -3.19931555869E+001, +0.00000000000E+000
+4.95784543650E+006, -3.20443506427E+001, +0.00000000000E+000
+4.95784637400E+006, -3.20939596602E+001, +0.00000000000E+000
+4.95784731150E+006, -3.21451787620E+001, +0.00000000000E+000
+4.95784824900E+006, -3.21958371853E+001, +0.00000000000E+000
+4.95784918650E+006, -3.22482008020E+001, +0.00000000000E+000
+4.95785012400E+006, -3.23010505938E+001, +0.00000000000E+000
+4.95785106150E+006, -3.23521342822E+001, +0.00000000000E+000
+4.95785199900E+006, -3.24046358885E+001, +0.00000000000E+000
+4.95785293650E+006, -3.24567534907E+001, +0.00000000000E+000
+4.95785387400E+006, -3.25091889873E+001, +0.00000000000E+000
+4.95785481150E+006, -3.25614278196E+001, +0.00000000000E+000
+4.95785574900E+006, -3.26134387107E+001, +0.00000000000E+000
+4.95785668650E+006, -3.26692565345E+001, +0.00000000000E+000
+4.95785762400E+006, -3.27214682146E+001, +0.00000000000E+000
+4.95785856150E+006, -3.27733366856E+001, +0.00000000000E+000
+4.95785949900E+006, -3.28280300830E+001, +0.00000000000E+000
+4.95786043650E+006, -3.28807639017E+001, +0.00000000000E+000
+4.95786137400E+006, -3.29364033802E+001, +0.00000000000E+000
+4.95786231150E+006, -3.29900058633E+001, +0.00000000000E+000
+4.95786324900E+006, -3.30438208087E+001, +0.00000000000E+000
+4.95786418650E+006, -3.30973647756E+001, +0.00000000000E+000
+4.95786512400E+006, -3.31521922822E+001, +0.00000000000E+000
+4.95786606150E+006, -3.32086062344E+001, +0.00000000000E+000
+4.95786699900E+006, -3.32643948351E+001, +0.00000000000E+000
+4.95786793650E+006, -3.33205175870E+001, +0.00000000000E+000
+4.95786887400E+006, -3.33752516468E+001, +0.00000000000E+000
+4.95786981150E+006, -3.34329344870E+001, +0.00000000000E+000
+4.95787074900E+006, -3.34886455237E+001, +0.00000000000E+000
+4.95787168650E+006, -3.35451138473E+001, +0.00000000000E+000
+4.95787262400E+006, -3.36012519278E+001, +0.00000000000E+000
+4.95787356150E+006, -3.36588497253E+001, +0.00000000000E+000
+4.95787449900E+006, -3.37163488858E+001, +0.00000000000E+000
+4.95787543650E+006, -3.37736026070E+001, +0.00000000000E+000
+4.95787637400E+006, -3.38290122103E+001, +0.00000000000E+000
+4.95787731150E+006, -3.38885067470E+001, +0.00000000000E+000
+4.95787824900E+006, -3.39480521368E+001, +0.00000000000E+000
+4.95787918650E+006, -3.40058087991E+001, +0.00000000000E+000
+4.95788012400E+006, -3.40646656298E+001, +0.00000000000E+000
+4.95788106150E+006, -3.41225673514E+001, +0.00000000000E+000
+4.95788199900E+006, -3.41827416754E+001, +0.00000000000E+000
+4.95788293650E+006, -3.42429516502E+001, +0.00000000000E+000
+4.95788387400E+006, -3.43010105272E+001, +0.00000000000E+000
+4.95788481150E+006, -3.43616338602E+001, +0.00000000000E+000
+4.95788574900E+006, -3.44206050758E+001, +0.00000000000E+000
+4.95788668650E+006, -3.44822585867E+001, +0.00000000000E+000
+4.95788762400E+006, -3.45428126141E+001, +0.00000000000E+000
+4.95788856150E+006, -3.46042523253E+001, +0.00000000000E+000
+4.95788949900E+006, -3.46648091576E+001, +0.00000000000E+000
+4.95789043650E+006, -3.47269304277E+001, +0.00000000000E+000
+4.95789137400E+006, -3.47873726064E+001, +0.00000000000E+000
+4.95789231150E+006, -3.48506657106E+001, +0.00000000000E+000
+4.95789324900E+006, -3.49138601184E+001, +0.00000000000E+000
+4.95789418650E+006, -3.49741936036E+001, +0.00000000000E+000
+4.95789512400E+006, -3.50374259749E+001, +0.00000000000E+000
+4.95789606150E+006, -3.50990875557E+001, +0.00000000000E+000
+4.95789699900E+006, -3.51653200128E+001, +0.00000000000E+000
+4.95789793650E+006, -3.52265815109E+001, +0.00000000000E+000
+4.95789887400E+006, -3.52906044410E+001, +0.00000000000E+000
+4.95789981150E+006, -3.53544175041E+001, +0.00000000000E+000
+4.95790074900E+006, -3.54185236920E+001, +0.00000000000E+000
+4.95790168650E+006, -3.54828860828E+001, +0.00000000000E+000
+4.95790262400E+006, -3.55494360118E+001, +0.00000000000E+000
+4.95790356150E+006, -3.56135054658E+001, +0.00000000000E+000
+4.95790449900E+006, -3.56797908696E+001, +0.00000000000E+000
+4.95790543650E+006, -3.57464635268E+001, +0.00000000000E+000
+4.95790637400E+006, -3.58107332787E+001, +0.00000000000E+000
+4.95790731150E+006, -3.58764179439E+001, +0.00000000000E+000
+4.95790824900E+006, -3.59439031032E+001, +0.00000000000E+000
+4.95790918650E+006, -3.60114579996E+001, +0.00000000000E+000
+4.95791012400E+006, -3.60777901772E+001, +0.00000000000E+000
+4.95791106150E+006, -3.61456034650E+001, +0.00000000000E+000
+4.95791199900E+006, -3.62136970184E+001, +0.00000000000E+000
+4.95791293650E+006, -3.62832450048E+001, +0.00000000000E+000
+4.95791387400E+006, -3.63496283147E+001, +0.00000000000E+000
+4.95791481150E+006, -3.64190853758E+001, +0.00000000000E+000
+4.95791574900E+006, -3.64893695596E+001, +0.00000000000E+000
+4.95791668650E+006, -3.65571432711E+001, +0.00000000000E+000
+4.95791762400E+006, -3.66278448553E+001, +0.00000000000E+000
+4.95791856150E+006, -3.66976387223E+001, +0.00000000000E+000
+4.95791949900E+006, -3.67667846572E+001, +0.00000000000E+000
+4.95792043650E+006, -3.68372060307E+001, +0.00000000000E+000
+4.95792137400E+006, -3.69084380372E+001, +0.00000000000E+000
+4.95792231150E+006, -3.69795484624E+001, +0.00000000000E+000
+4.95792324900E+006, -3.70501907471E+001, +0.00000000000E+000
+4.95792418650E+006, -3.71240458353E+001, +0.00000000000E+000
+4.95792512400E+006, -3.71964130942E+001, +0.00000000000E+000
+4.95792606150E+006, -3.72676543836E+001, +0.00000000000E+000
+4.95792699900E+006, -3.73417918573E+001, +0.00000000000E+000
+4.95792793650E+006, -3.74154932520E+001, +0.00000000000E+000
+4.95792887400E+006, -3.74888693262E+001, +0.00000000000E+000
+4.95792981150E+006, -3.75630875174E+001, +0.00000000000E+000
+4.95793074900E+006, -3.76375332758E+001, +0.00000000000E+000
+4.95793168650E+006, -3.77128310781E+001, +0.00000000000E+000
+4.95793262400E+006, -3.77874586182E+001, +0.00000000000E+000
+4.95793356150E+006, -3.78625893681E+001, +0.00000000000E+000
+4.95793449900E+006, -3.79375937669E+001, +0.00000000000E+000
+4.95793543650E+006, -3.80147098008E+001, +0.00000000000E+000
+4.95793637400E+006, -3.80905673461E+001, +0.00000000000E+000
+4.95793731150E+006, -3.81677312563E+001, +0.00000000000E+000
+4.95793824900E+006, -3.82453170551E+001, +0.00000000000E+000
+4.95793918650E+006, -3.83212260156E+001, +0.00000000000E+000
+4.95794012400E+006, -3.84001020241E+001, +0.00000000000E+000
+4.95794106150E+006, -3.84777675709E+001, +0.00000000000E+000
+4.95794199900E+006, -3.85550570769E+001, +0.00000000000E+000
+4.95794293650E+006, -3.86348910340E+001, +0.00000000000E+000
+4.95794387400E+006, -3.87140838300E+001, +0.00000000000E+000
+4.95794481150E+006, -3.87925875744E+001, +0.00000000000E+000
+4.95794574900E+006, -3.88729734760E+001, +0.00000000000E+000
+4.95794668650E+006, -3.89539792953E+001, +0.00000000000E+000
+4.95794762400E+006, -3.90352288079E+001, +0.00000000000E+000
+4.95794856150E+006, -3.91160772662E+001, +0.00000000000E+000
+4.95794949900E+006, -3.91960005893E+001, +0.00000000000E+000
+4.95795043650E+006, -3.92795288610E+001, +0.00000000000E+000
+4.95795137400E+006, -3.93616796061E+001, +0.00000000000E+000
+4.95795231150E+006, -3.94450555683E+001, +0.00000000000E+000
+4.95795324900E+006, -3.95285965696E+001, +0.00000000000E+000
+4.95795418650E+006, -3.96122951482E+001, +0.00000000000E+000
+4.95795512400E+006, -3.96949665738E+001, +0.00000000000E+000
+4.95795606150E+006, -3.97804642151E+001, +0.00000000000E+000
+4.95795699900E+006, -3.98663920712E+001, +0.00000000000E+000
+4.95795793650E+006, -3.99490525456E+001, +0.00000000000E+000
+4.95795887400E+006, -4.00359857467E+001, +0.00000000000E+000
+4.95795981150E+006, -4.01220909702E+001, +0.00000000000E+000
+4.95796074900E+006, -4.02096456719E+001, +0.00000000000E+000
+4.95796168650E+006, -4.02953645290E+001, +0.00000000000E+000
+4.95796262400E+006, -4.03834538170E+001, +0.00000000000E+000
+4.95796356150E+006, -4.04709557758E+001, +0.00000000000E+000
+4.95796449900E+006, -4.05599543498E+001, +0.00000000000E+000
+4.95796543650E+006, -4.06495505132E+001, +0.00000000000E+000
+4.95796637400E+006, -4.07366980786E+001, +0.00000000000E+000
+4.95796731150E+006, -4.08261096998E+001, +0.00000000000E+000
+4.95796824900E+006, -4.09171765687E+001, +0.00000000000E+000
+4.95796918650E+006, -4.10060748764E+001, +0.00000000000E+000
+4.95797012400E+006, -4.10967189583E+001, +0.00000000000E+000
+4.95797106150E+006, -4.11895453930E+001, +0.00000000000E+000
+4.95797199900E+006, -4.12808007829E+001, +0.00000000000E+000
+4.95797293650E+006, -4.13735431432E+001, +0.00000000000E+000
+4.95797387400E+006, -4.14655543809E+001, +0.00000000000E+000
+4.95797481150E+006, -4.15611929453E+001, +0.00000000000E+000
+4.95797574900E+006, -4.16531829233E+001, +0.00000000000E+000
+4.95797668650E+006, -4.17471894389E+001, +0.00000000000E+000
+4.95797762400E+006, -4.18414402121E+001, +0.00000000000E+000
+4.95797856150E+006, -4.19371392750E+001, +0.00000000000E+000
+4.95797949900E+006, -4.20340057459E+001, +0.00000000000E+000
+4.95798043650E+006, -4.21291222001E+001, +0.00000000000E+000
+4.95798137400E+006, -4.22251867265E+001, +0.00000000000E+000
+4.95798231150E+006, -4.23226419332E+001, +0.00000000000E+000
+4.95798324900E+006, -4.24204041264E+001, +0.00000000000E+000
+4.95798418650E+006, -4.25183186345E+001, +0.00000000000E+000
+4.95798512400E+006, -4.26169871660E+001, +0.00000000000E+000
+4.95798606150E+006, -4.27162012135E+001, +0.00000000000E+000
+4.95798699900E+006, -4.28163797135E+001, +0.00000000000E+000
+4.95798793650E+006, -4.29179367766E+001, +0.00000000000E+000
+4.95798887400E+006, -4.30170828991E+001, +0.00000000000E+000
+4.95798981150E+006, -4.31173361943E+001, +0.00000000000E+000
+4.95799074900E+006, -4.32196118429E+001, +0.00000000000E+000
