"# Channel 1"
"# Trace 2"
Frequency, Formatted Data, Formatted Data
+4.95769074900E+006, -2.57283672283E+001, +0.00000000000E+000
+4.95769168650E+006, -2.57026933512E+001, +0.00000000000E+000
+4.95769262400E+006, -2.57250766881E+001, +0.00000000000E+000
+4.95769356150E+006, -2.57491586656E+001, +0.00000000000E+000
+4.95769449900E+006, -2.57743334757E+001, +0.00000000000E+000
+4.95769543650E+006, -2.57983483481E+001, +0.00000000000E+000
+4.95769637400E+006, -2.58236858700E+001, +0.00000000000E+000
+4.95769731150E+006, -2.58476936206E+001, +0.00000000000E+000
+4.95769824900E+006, -2.58725222534E+001, +0.00000000000E+000
+4.95769918650E+006, -2.58979674839E+001, +0.00000000000E+000
+4.95770012400E+006, -2.59223758055E+001, +0.00000000000E+000
+4.95770106150E+006, -2.59477306932E+001, +0.00000000000E+000
+4.95770199900E+006, -2.59726962353E+001, +0.00000000000E+000
+4.95770293650E+006, -2.59975015526E+001, +0.00000000000E+000
+4.95770387400E+006, -2.60231599212E+001, +0.00000000000E+000
+4.95770481150E+006, -2.60476433681E+001, +0.00000000000E+000
+4.95770574900E+006, -2.60738355638E+001, +0.00000000000E+000
+4.95770668650E+006, -2.60982615272E+001, +0.00000000000E+000
+4.95770762400E+006, -2.61244073665E+001, +0.00000000000E+000
+4.95770856150E+006, -2.61508599132E+001, +0.00000000000E+000
+4.95770949900E+006, -2.61767249652E+001, +0.00000000000E+000
+4.95771043650E+006, -2.62025585136E+001, +0.00000000000E+000
+4.95771137400E+006, -2.62281462436E+001, +0.00000000000E+000
+4.95771231150E+006, -2.62540604264E+001, +0.00000000000E+000
+4.95771324900E+006, -2.62809941622E+001, +0.00000000000E+000
+4.95771418650E+006, -2.63064288600E+001, +0.00000000000E+000
+4.95771512400E+006, -2.63322574959E+001, +0.00000000000E+000
+4.95771606150E+006, -2.63589265427E+001, +0.00000000000E+000
+4.95771699900E+006, -2.63866639880E+001, +0.00000000000E+000
+4.95771793650E+006, -2.64123880254E+001, +0.00000000000E+000
+4.95771887400E+006, -2.64400360238E+001, +0.00000000000E+000
+4.95771981150E+006, -2.64664294535E+001, +0.00000000000E+000
+4.95772074900E+006, -2.64927686151E+001, +0.00000000000E+000
+4.95772168650E+006, -2.65202096294E+001, +0.00000000000E+000
+4.95772262400E+006, -2.65485729402E+001, +0.00000000000E+000
+4.95772356150E+006, -2.65744785364E+001, +0.00000000000E+000
+4.95772449900E+006, -2.66010502740E+001, +0.00000000000E+000
+4.95772543650E+006, -2.66294590230E+001, +0.00000000000E+000
+4.95772637400E+006, -2.66563098590E+001, +0.00000000000E+000
+4.95772731150E+006, -2.66840123828E+001, +0.00000000000E+000
+4.95772824900E+006, -2.67114086015E+001, +0.00000000000E+000
+4.95772918650E+006, -2.67380794816E+001, +0.00000000000E+000
+4.95773012400E+006, -2.67659754825E+001, +0.00000000000E+000
+4.95773106150E+006, -2.67939807590E+001, +0.00000000000E+000
+4.95773199900E+006, -2.68213300580E+001, +0.00000000000E+000
+4.95773293650E+006, -2.68498171410E+001, +0.00000000000E+000
+4.95773387400E+006, -2.68780737625E+001, +0.00000000000E+000
+4.95773481150E+006, -2.69058668559E+001, +0.00000000000E+000
+4.95773574900E+006, -2.69326434329E+001, +0.00000000000E+000
+4.95773668650E+006, -2.69621806239E+001, +0.00000000000E+000
+4.95773762400E+006, -2.69907824063E+001, +0.00000000000E+000
+4.95773856150E+006, -2.70192833136E+001, +0.00000000000E+000
+4.95773949900E+006, -2.70464944779E+001, +0.00000000000E+000
+4.95774043650E+006, -2.70753629185E+001, +0.00000000000E+000
+4.95774137400E+006, -2.71060204045E+001, +0.00000000000E+000
+4.95774231150E+006, -2.71338922976E+001, +0.00000000000E+000
+4.95774324900E+006, -2.71622815252E+001, +0.00000000000E+000
+4.95774418650E+006, -2.71921066561E+001, +0.00000000000E+000
+4.95774512400E+006, -2.72212432087E+001, +0.00000000000E+000
+4.95774606150E+006, -2.72504466801E+001, +0.00000000000E+000
+4.95774699900E+006, -2.72787542755E+001, +0.00000000000E+000
+4.95774793650E+006, -2.73076424253E+001, +0.00000000000E+000
+4.95774887400E+006, -2.73368149918E+001, +0.00000000000E+000
+4.95774981150E+006, -2.73667837034E+001, +0.00000000000E+000
+4.95775074900E+006, -2.73977192039E+001, +0.00000000000E+000
+4.95775168650E+006, -2.74290782928E+001, +0.00000000000E+000
+4.95775262400E+006, -2.74583445757E+001, +0.00000000000E+000
+4.95775356150E+006, -2.74882944649E+001, +0.00000000000E+000
+4.95775449900E+006, -2.75181342077E+001, +0.00000000000E+000
+4.95775543650E+006, -2.75484965806E+001, +0.00000000000E+000
+4.95775637400E+006, -2.75779997872E+001, +0.00000000000E+000
+4.95775731150E+006, -2.76081746131E+001, +0.00000000000E+000
+4.95775824900E+006, -2.76400804182E+001, +0.00000000000E+000
+4.95775918650E+006, -2.76702686216E+001, +0.00000000000E+000
+4.95776012400E+006, -2.77017018526E+001, +0.00000000000E+000
+4.95776106150E+006, -2.77310070302E+001, +0.00000000000E+000
+4.95776199900E+006, -2.77628306031E+001, +0.00000000000E+000
+4.95776293650E+006, -2.77928994561E+001, +0.00000000000E+000
+4.95776387400E+006, -2.78243845261E+001, +0.00000000000E+000
+4.95776481150E+006, -2.78561565485E+001, +0.00000000000E+000
+4.95776574900E+006, -2.78862524266E+001, +0.00000000000E+000
+4.95776668650E+006, -2.79179502725E+001, +0.00000000000E+000
+4.95776762400E+006, -2.79507571585E+001, +0.00000000000E+000
+4.95776856150E+006, -2.79794258543E+001, +0.00000000000E+000
+4.95776949900E+006, -2.80129452717E+001, +0.00000000000E+000
+4.95777043650E+006, -2.80427755292E+001, +0.00000000000E+000
+4.95777137400E+006, -2.80761461521E+001, +0.00000000000E+000
+4.95777231150E+006, -2.81072572497E+001, +0.00000000000E+000
+4.95777324900E+006, -2.81393363557E+001, +0.00000000000E+000
+4.95777418650E+006, -2.81717910719E+001, +0.00000000000E+000
+4.95777512400E+006, -2.82048216000E+001, +0.00000000000E+000
+4.95777606150E+006, -2.82362417325E+001, +0.00000000000E+000
+4.95777699900E+006, -2.82687799461E+001, +0.00000000000E+000
+4.95777793650E+006, -2.83011364511E+001, +0.00000000000E+000
+4.95777887400E+006, -2.83355859042E+001, +0.00000000000E+000
+4.95777981150E+006, -2.83675598125E+001, +0.00000000000E+000
+4.95778074900E+006, -2.83996719520E+001, +0.00000000000E+000
+4.95778168650E+006, -2.84325136233E+001, +0.00000000000E+000
+4.95778262400E+006, -2.84670070343E+001, +0.00000000000E+000
+4.95778356150E+006, -2.85008167849E+001, +0.00000000000E+000
+4.95778449900E+006, -2.85324011012E+001, +0.00000000000E+000
+4.95778543650E+006, -2.85666211263E+001, +0.00000000000E+000
+4.95778637400E+006, -2.85989088516E+001, +0.00000000000E+000
+4.95778731150E+006, -2.86331021936E+001, +0.00000000000E+000
+4.95778824900E+006, -2.86669662482E+001, +0.00000000000E+000
+4.95778918650E+006, -2.87001225032E+001, +0.00000000000E+000
+4.95779012400E+006, -2.87356514919E+001, +0.00000000000E+000
+4.95779106150E+006, -2.87691280080E+001, +0.00000000000E+000
+4.95779199900E+006, -2.88044230769E+001, +0.00000000000E+000
+4.95779293650E+006, -2.88380859466E+001, +0.00000000000E+000
+4.95779387400E+006, -2.88734762574E+001, +0.00000000000E+000
+4.95779481150E+006, -2.89072615159E+001, +0.00000000000E+000
+4.95779574900E+006, -2.89414022677E+001, +0.00000000000E+000
+4.95779668650E+006, -2.89777001188E+001, +0.00000000000E+000
+4.95779762400E+006, -2.90111506375E+001, +0.00000000000E+000
+4.95779856150E+006, -2.90468417526E+001, +0.00000000000E+000
+4.95779949900E+006, -2.90826797876E+001, +0.00000000000E+000
+4.95780043650E+006, -2.91172788631E+001, +0.00000000000E+000
+4.95780137400E+006, -2.91528651676E+001, +0.00000000000E+000
+4.95780231150E+006, -2.91885434865E+001, +0.00000000000E+000
+4.95780324900E+006, -2.92234927264E+001, +0.00000000000E+000
+4.95780418650E+006, -2.92599557166E+001, +0.00000000000E+000
+4.95780512400E+006, -2.92954528139E+001, +0.00000000000E+000
+4.95780606150E+006, -2.93323178843E+001, +0.00000000000E+000
+4.95780699900E+006, -2.93688040910E+001, +0.00000000000E+000
+4.95780793650E+006, -2.94043343078E+001, +0.00000000000E+000
+4.95780887400E+006, -2.94416515782E+001, +0.00000000000E+000
+4.95780981150E+006, -2.94763579679E+001, +0.00000000000E+000
+4.95781074900E+006, -2.95131201444E+001, +0.00000000000E+000
+4.95781168650E+006, -2.95523965995E+001, +0.00000000000E+000
+4.95781262400E+006, -2.95869666661E+001, +0.00000000000E+000
+4.95781356150E+006, -2.96248745606E+001, +0.00000000000E+000
+4.95781449900E+006, -2.96615597025E+001, +0.00000000000E+000
+4.95781543650E+006, -2.96984927613E+001, +0.00000000000E+000
+4.95781637400E+006, -2.97368243400E+001, +0.00000000000E+000
+4.95781731150E+006, -2.97742572821E+001, +0.00000000000E+000
+4.95781824900E+006, -2.98125296137E+001, +0.00000000000E+000
+4.95781918650E+006, -2.98502894464E+001, +0.00000000000E+000
+4.95782012400E+006, -2.98875607083E+001, +0.00000000000E+000
+4.95782106150E+006, -2.99263289695E+001, +0.00000000000E+000
+4.95782199900E+006, -2.99647630785E+001, +0.00000000000E+000
+4.95782293650E+006, -3.00045062746E+001, +0.00000000000E+000
+4.95782387400E+006, -3.00431961761E+001, +0.00000000000E+000
+4.95782481150E+006, -3.00805428751E+001, +0.00000000000E+000
+4.95782574900E+006, -3.01196077544E+001, +0.00000000000E+000
+4.95782668650E+006, -3.01579089804E+001, +0.00000000000E+000
+4.95782762400E+006, -3.01979190687E+001, +0.00000000000E+000
+4.95782856150E+006, -3.02359881011E+001, +0.00000000000E+000
+4.95782949900E+006, -3.02759202187E+001, +0.00000000000E+000
+4.95783043650E+006, -3.03161891457E+001, +0.00000000000E+000
+4.95783137400E+006, -3.03563082134E+001, +0.00000000000E+000
+4.95783231150E+006, -3.03959731471E+001, +0.00000000000E+000
+4.95783324900E+006, -3.04352122927E+001, +0.00000000000E+000
+4.95783418650E+006, -3.04763268149E+001, +0.00000000000E+000
+4.95783512400E+006, -3.05162429645E+001, +0.00000000000E+000
+4.95783606150E+006, -3.05570796552E+001, +0.00000000000E+000
+4.95783699900E+006, -3.05981324420E+001, +0.00000000000E+000
+4.95783793650E+006, -3.06381229935E+001, +0.00000000000E+000
+4.95783887400E+006, -3.06772783333E+001, +0.00000000000E+000
+4.95783981150E+006, -3.07203980282E+001, +0.00000000000E+000
+4.95784074900E+006, -3.07601399610E+001, +0.00000000000E+000
+4.95784168650E+006, -3.08015660090E+001, +0.00000000000E+000
+4.95784262400E+006, -3.08429803044E+001, +0.00000000000E+000
+4.95784356150E+006, -3.08867715721E+001, +0.00000000000E+000
+4.95784449900E+006, -3.09271982358E+001, +0.00000000000E+000
+4.95784543650E+006, -3.09694337621E+001, +0.00000000000E+000
+4.95784637400E+006, -3.10090943293E+001, +0.00000000000E+000
+4.95784731150E+006, -3.10547813571E+001, +0.00000000000E+000
+4.95784824900E+006, -3.10950859639E+001, +0.00000000000E+000
+4.95784918650E+006, -3.11382215903E+001, +0.00000000000E+000
+4.95785012400E+006, -3.11792163653E+001, +0.00000000000E+000
+4.95785106150E+006, -3.12217355387E+001, +0.00000000000E+000
+4.95785199900E+006, -3.12653483480E+001, +0.00000000000E+000
+4.95785293650E+006, -3.13093465630E+001, +0.00000000000E+000
+4.95785387400E+006, -3.13514235278E+001, +0.00000000000E+000
+4.95785481150E+006, -3.13956215713E+001, +0.00000000000E+000
+4.95785574900E+006, -3.14389662731E+001, +0.00000000000E+000
+4.95785668650E+006, -3.14840111092E+001, +0.00000000000E+000
+4.95785762400E+006, -3.15268203084E+001, +0.00000000000E+000
+4.95785856150E+006, -3.15700107330E+001, +0.00000000000E+000
+4.95785949900E+006, -3.16152887569E+001, +0.00000000000E+000
+4.95786043650E+006, -3.16598011511E+001, +0.00000000000E+000
+4.95786137400E+006, -3.17051408337E+001, +0.00000000000E+000
+4.95786231150E+006, -3.17489244416E+001, +0.00000000000E+000
+4.95786324900E+006, -3.17950652204E+001, +0.00000000000E+000
+4.95786418650E+006, -3.18390370506E+001, +0.00000000000E+000
+4.95786512400E+006, -3.18843665460E+001, +0.00000000000E+000
+4.95786606150E+006, -3.19304636921E+001, +0.00000000000E+000
+4.95786699900E+006, -3.19757493198E+001, +0.00000000000E+000
+4.95786793650E+006, -3.20225720060E+001, +0.00000000000E+000
+4.95786887400E+006, -3.20678880572E+001, +0.00000000000E+000
+4.95786981150E+006, -3.21138167730E+001, +0.00000000000E+000
+4.95787074900E+006, -3.21617024060E+001, +0.00000000000E+000
+4.95787168650E+006, -3.22056354316E+001, +0.00000000000E+000
+4.95787262400E+006, -3.22544752336E+001, +0.00000000000E+000
+4.95787356150E+006, -3.23004324018E+001, +0.00000000000E+000
+4.95787449900E+006, -3.23484388840E+001, +0.00000000000E+000
+4.95787543650E+006, -3.23943719542E+001, +0.00000000000E+000
+4.95787637400E+006, -3.24414758021E+001, +0.00000000000E+000
+4.95787731150E+006, -3.24906311651E+001, +0.00000000000E+000
+4.95787824900E+006, -3.25407437284E+001, +0.00000000000E+000
+4.95787918650E+006, -3.25870798869E+001, +0.00000000000E+000
+4.95788012400E+006, -3.26356721237E+001, +0.00000000000E+000
+4.95788106150E+006, -3.26839927556E+001, +0.00000000000E+000
+4.95788199900E+006, -3.27336753056E+001, +0.00000000000E+000
+4.95788293650E+006, -3.27817386603E+001, +0.00000000000E+000
+4.95788387400E+006, -3.28303337877E+001, +0.00000000000E+000
+4.95788481150E+006, -3.28792562891E+001, +0.00000000000E+000
+4.95788574900E+006, -3.29296792075E+001, +0.00000000000E+000
+4.95788668650E+006, -3.29783373936E+001, +0.00000000000E+000
+4.95788762400E+006, -3.30294474142E+001, +0.00000000000E+000
+4.95788856150E+006, -3.30791632958E+001, +0.00000000000E+000
+4.95788949900E+006, -3.31285421106E+001, +0.00000000000E+000
+4.95789043650E+006, -3.31796299268E+001, +0.00000000000E+000
+4.95789137400E+006, -3.32332197577E+001, +0.00000000000E+000
+4.95789231150E+006, -3.32853406472E+001, +0.00000000000E+000
+4.95789324900E+006, -3.33351823808E+001, +0.00000000000E+000
+4.95789418650E+006, -3.33857799158E+001, +0.00000000000E+000
+4.95789512400E+006, -3.34380456853E+001, +0.00000000000E+000
+4.95789606150E+006, -3.34901968139E+001, +0.00000000000E+000
+4.95789699900E+006, -3.35413259429E+001, +0.00000000000E+000
+4.95789793650E+006, -3.35935080687E+001, +0.00000000000E+000
+4.95789887400E+006, -3.36456943125E+001, +0.00000000000E+000
+4.95789981150E+006, -3.37001948079E+001, +0.00000000000E+000
+4.95790074900E+006, -3.37541122589E+001, +0.00000000000E+000
+4.95790168650E+006, -3.38059938029E+001, +0.00000000000E+000
+4.95790262400E+006, -3.38594711247E+001, +0.00000000000E+000
+4.95790356150E+006, -3.39123502487E+001, +0.00000000000E+000
+4.95790449900E+006, -3.39662083401E+001, +0.00000000000E+000
+4.95790543650E+006, -3.40195094266E+001, +0.00000000000E+000
+4.95790637400E+006, -3.40759783082E+001, +0.00000000000E+000
+4.95790731150E+006, -3.41299888300E+001, +0.00000000000E+000
+4.95790824900E+006, -3.41844376365E+001, +0.00000000000E+000
+4.95790918650E+006, -3.42397818994E+001, +0.00000000000E+000
+4.95791012400E+006, -3.42955144715E+001, +0.00000000000E+000
+4.95791106150E+006, -3.43502695084E+001, +0.00000000000E+000
+4.95791199900E+006, -3.44061527663E+001, +0.00000000000E+000
+4.95791293650E+006, -3.44614796526E+001, +0.00000000000E+000
+4.95791387400E+006, -3.45197633618E+001, +0.00000000000E+000
+4.95791481150E+006, -3.45763563575E+001, +0.00000000000E+000
+4.95791574900E+006, -3.46328194064E+001, +0.00000000000E+000
+4.95791668650E+006, -3.46902480417E+001, +0.00000000000E+000
+4.95791762400E+006, -3.47458083037E+001, +0.00000000000E+000
+4.95791856150E+006, -3.48029708618E+001, +0.00000000000E+000
+4.95791949900E+006, -3.48604466432E+001, +0.00000000000E+000
+4.95792043650E+006, -3.49188683201E+001, +0.00000000000E+000
+4.95792137400E+006, -3.49757863509E+001, +0.00000000000E+000
+4.95792231150E+006, -3.50362116358E+001, +0.00000000000E+000
+4.95792324900E+006, -3.50941297282E+001, +0.00000000000E+000
+4.95792418650E+006, -3.51540805099E+001, +0.00000000000E+000
+4.95792512400E+006, -3.52122209094E+001, +0.00000000000E+000
+4.95792606150E+006, -3.52735788265E+001, +0.00000000000E+000
+4.95792699900E+006, -3.53315557996E+001, +0.00000000000E+000
+4.95792793650E+006, -3.53913296622E+001, +0.00000000000E+000
+4.95792887400E+006, -3.54515150236E+001, +0.00000000000E+000
+4.95792981150E+006, -3.55131505451E+001, +0.00000000000E+000
+4.95793074900E+006, -3.55733881532E+001, +0.00000000000E+000
+4.95793168650E+006, -3.56353641197E+001, +0.00000000000E+000
+4.95793262400E+006, -3.56973513686E+001, +0.00000000000E+000
+4.95793356150E+006, -3.57565098974E+001, +0.00000000000E+000
+4.95793449900E+006, -3.58195832165E+001, +0.00000000000E+000
+4.95793543650E+006, -3.58825350769E+001, +0.00000000000E+000
+4.95793637400E+006, -3.59464423551E+001, +0.00000000000E+000
+4.95793731150E+006, -3.60082584603E+001, +0.00000000000E+000
+4.95793824900E+006, -3.60716429159E+001, +0.00000000000E+000
+4.95793918650E+006, -3.61340685019E+001, +0.00000000000E+000
+4.95794012400E+006, -3.61983510499E+001, +0.00000000000E+000
+4.95794106150E+006, -3.62620097153E+001, +0.00000000000E+000
+4.95794199900E+006, -3.63267780026E+001, +0.00000000000E+000
+4.95794293650E+006, -3.63909813066E+001, +0.00000000000E+000
+4.95794387400E+006, -3.64548928663E+001, +0.00000000000E+000
+4.95794481150E+006, -3.65208499483E+001, +0.00000000000E+000
+4.95794574900E+006, -3.65854463485E+001, +0.00000000000E+000
+4.95794668650E+006, -3.66515634114E+001, +0.00000000000E+000
+4.95794762400E+006, -3.67171300552E+001, +0.00000000000E+000
+4.95794856150E+006, -3.67840278697E+001, +0.00000000000E+000
+4.95794949900E+006, -3.68498024995E+001, +0.00000000000E+000
+4.95795043650E+006, -3.69164349410E+001, +0.00000000000E+000
+4.95795137400E+006, -3.69857852096E+001, +0.00000000000E+000
+4.95795231150E+006, -3.70523362628E+001, +0.00000000000E+000
+4.95795324900E+006, -3.71202973971E+001, +0.00000000000E+000
+4.95795418650E+006, -3.71885303019E+001, +0.00000000000E+000
+4.95795512400E+006, -3.72557213895E+001, +0.00000000000E+000
+4.95795606150E+006, -3.73260425615E+001, +0.00000000000E+000
+4.95795699900E+006, -3.73954331853E+001, +0.00000000000E+000
+4.95795793650E+006, -3.74634107225E+001, +0.00000000000E+000
+4.95795887400E+006, -3.75346910141E+001, +0.00000000000E+000
+4.95795981150E+006, -3.76039640710E+001, +0.00000000000E+000
+4.95796074900E+006, -3.76747688362E+001, +0.00000000000E+000
+4.95796168650E+006, -3.77457424634E+001, +0.00000000000E+000
+4.95796262400E+006, -3.78172627992E+001, +0.00000000000E+000
+4.95796356150E+006, -3.78886326569E+001, +0.00000000000E+000
+4.95796449900E+006, -3.79602255071E+001, +0.00000000000E+000
+4.95796543650E+006, -3.80323940415E+001, +0.00000000000E+000
+4.95796637400E+006, -3.81048483950E+001, +0.00000000000E+000
+4.95796731150E+006, -3.81760451288E+001, +0.00000000000E+000
+4.95796824900E+006, -3.82507684321E+001, +0.00000000000E+000
+4.95796918650E+006, -3.83242566577E+001, +0.00000000000E+000
+4.95797012400E+006, -3.83983327121E+001, +0.00000000000E+000
+4.95797106150E+006, -3.84726348784E+001, +0.00000000000E+000
+4.95797199900E+006, -3.85465050242E+001, +0.00000000000E+000
+4.95797293650E+006, -3.86217783110E+001, +0.00000000000E+000
+4.95797387400E+006, -3.86973272194E+001, +0.00000000000E+000
+4.95797481150E+006, -3.87730964177E+001, +0.00000000000E+000
+4.95797574900E+006, -3.88485149929E+001, +0.00000000000E+000
+4.95797668650E+006, -3.89249926615E+001, +0.00000000000E+000
+4.95797762400E+006, -3.90026897403E+001, +0.00000000000E+000
+4.95797856150E+006, -3.90782506875E+001, +0.00000000000E+000
+4.95797949900E+006, -3.91570301235E+001, +0.00000000000E+000
+4.95798043650E+006, -3.92352153197E+001, +0.00000000000E+000
+4.95798137400E+006, -3.93141617134E+001, +0.00000000000E+000
+4.95798231150E+006, -3.93919279566E+001, +0.00000000000E+000
+4.95798324900E+006, -3.94713623246E+001, +0.00000000000E+000
+4.95798418650E+006, -3.95517139485E+001, +0.00000000000E+000
+4.95798512400E+006, -3.96321296945E+001, +0.00000000000E+000
+4.95798606150E+006, -3.97144999015E+001, +0.00000000000E+000
+4.95798699900E+006, -3.97941474850E+001, +0.00000000000E+000
+4.95798793650E+006, -3.98745509410E+001, +0.00000000000E+000
+4.95798887400E+006, -3.99560420378E+001, +0.00000000000E+000
+4.95798981150E+006, -4.00401392147E+001, +0.00000000000E+000
+4.95799074900E+006, -4.01220417160E+001, +0.00000000000E+000
