"# Channel 1"
"# Trace 2"
Frequency, Formatted Data, Formatted Data
+4.95769074900E+006, -2.47893252866E+001, +0.00000000000E+000
+4.95769168650E+006, -2.47309642639E+001, +0.00000000000E+000
+4.95769262400E+006, -2.47593479816E+001, +0.00000000000E+000
+4.95769356150E+006, -2.47791442054E+001, +0.00000000000E+000
+4.95769449900E+006, -2.47990507641E+001, +0.00000000000E+000
+4.95769543650E+006, -2.48204741256E+001, +0.00000000000E+000
+4.95769637400E+006, -2.48419568956E+001, +0.00000000000E+000
+4.95769731150E+006, -2.48628924771E+001, +0.00000000000E+000
+4.95769824900E+006, -2.48848589241E+001, +0.00000000000E+000
+4.95769918650E+006, -2.49057458488E+001, +0.00000000000E+000
+4.95770012400E+006, -2.49270357979E+001, +0.00000000000E+000
+4.95770106150E+006, -2.49488221827E+001, +0.00000000000E+000
+4.95770199900E+006, -2.49695919138E+001, +0.00000000000E+000
+4.95770293650E+006, -2.49925613411E+001, +0.00000000000E+000
+4.95770387400E+006, -2.50149060325E+001, +0.00000000000E+000
+4.95770481150E+006, -2.50359961955E+001, +0.00000000000E+000
+4.95770574900E+006, -2.50577784549E+001, +0.00000000000E+000
+4.95770668650E+006, -2.50798440492E+001, +0.00000000000E+000
+4.95770762400E+006, -2.51056790722E+001, +0.00000000000E+000
+4.95770856150E+006, -2.51326272117E+001, +0.00000000000E+000
+4.95770949900E+006, -2.51594703384E+001, +0.00000000000E+000
+4.95771043650E+006, -2.51937033649E+001, +0.00000000000E+000
+4.95771137400E+006, -2.52493102531E+001, +0.00000000000E+000
+4.95771231150E+006, -2.53843363603E+001, +0.00000000000E+000
+4.95771324900E+006, -2.54799494946E+001, +0.00000000000E+000
+4.95771418650E+006, -2.54853320062E+001, +0.00000000000E+000
+4.95771512400E+006, -2.55006786852E+001, +0.00000000000E+000
+4.95771606150E+006, -2.55142772846E+001, +0.00000000000E+000
+4.95771699900E+006, -2.55348766811E+001, +0.00000000000E+000
+4.95771793650E+006, -2.55558126867E+001, +0.00000000000E+000
+4.95771887400E+006, -2.55784673312E+001, +0.00000000000E+000
+4.95771981150E+006, -2.55998677968E+001, +0.00000000000E+000
+4.95772074900E+006, -2.56213454282E+001, +0.00000000000E+000
+4.95772168650E+006, -2.56450042168E+001, +0.00000000000E+000
+4.95772262400E+006, -2.56685703168E+001, +0.00000000000E+000
+4.95772356150E+006, -2.56901321817E+001, +0.00000000000E+000
+4.95772449900E+006, -2.57137793466E+001, +0.00000000000E+000
+4.95772543650E+006, -2.57359467176E+001, +0.00000000000E+000
+4.95772637400E+006, -2.57606015239E+001, +0.00000000000E+000
+4.95772731150E+006, -2.57848740192E+001, +0.00000000000E+000
+4.95772824900E+006, -2.58077121759E+001, +0.00000000000E+000
+4.95772918650E+006, -2.58285608630E+001, +0.00000000000E+000
+4.95773012400E+006, -2.58552400275E+001, +0.00000000000E+000
+4.95773106150E+006, -2.58780148218E+001, +0.00000000000E+000
+4.95773199900E+006, -2.59038655474E+001, +0.00000000000E+000
+4.95773293650E+006, -2.59269266719E+001, +0.00000000000E+000
+4.95773387400E+006, -2.59505187001E+001, +0.00000000000E+000
+4.95773481150E+006, -2.59750342416E+001, +0.00000000000E+000
+4.95773574900E+006, -2.59969212931E+001, +0.00000000000E+000
+4.95773668650E+006, -2.60210710642E+001, +0.00000000000E+000
+4.95773762400E+006, -2.60448716072E+001, +0.00000000000E+000
+4.95773856150E+006, -2.60701358533E+001, +0.00000000000E+000
+4.95773949900E+006, -2.60938094526E+001, +0.00000000000E+000
+4.95774043650E+006, -2.61176935707E+001, +0.00000000000E+000
+4.95774137400E+006, -2.61416135423E+001, +0.00000000000E+000
+4.95774231150E+006, -2.61679713498E+001, +0.00000000000E+000
+4.95774324900E+006, -2.61907909517E+001, +0.00000000000E+000
+4.95774418650E+006, -2.62175974076E+001, +0.00000000000E+000
+4.95774512400E+006, -2.62413910039E+001, +0.00000000000E+000
+4.95774606150E+006, -2.62669979253E+001, +0.00000000000E+000
+4.95774699900E+006, -2.62918620772E+001, +0.00000000000E+000
+4.95774793650E+006, -2.63168039403E+001, +0.00000000000E+000
+4.95774887400E+006, -2.63433392997E+001, +0.00000000000E+000
+4.95774981150E+006, -2.63673263470E+001, +0.00000000000E+000
+4.95775074900E+006, -2.63919173273E+001, +0.00000000000E+000
+4.95775168650E+006, -2.64182237677E+001, +0.00000000000E+000
+4.95775262400E+006, -2.64427188256E+001, +0.00000000000E+000
+4.95775356150E+006, -2.64673626181E+001, +0.00000000000E+000
+4.95775449900E+006, -2.64950720618E+001, +0.00000000000E+000
+4.95775543650E+006, -2.65210298563E+001, +0.00000000000E+000
+4.95775637400E+006, -2.65458696568E+001, +0.00000000000E+000
+4.95775731150E+006, -2.65723373165E+001, +0.00000000000E+000
+4.95775824900E+006, -2.65987828304E+001, +0.00000000000E+000
+4.95775918650E+006, -2.66250312344E+001, +0.00000000000E+000
+4.95776012400E+006, -2.66500752225E+001, +0.00000000000E+000
+4.95776106150E+006, -2.66766287355E+001, +0.00000000000E+000
+4.95776199900E+006, -2.67024148587E+001, +0.00000000000E+000
+4.95776293650E+006, -2.67291217538E+001, +0.00000000000E+000
+4.95776387400E+006, -2.67562236292E+001, +0.00000000000E+000
+4.95776481150E+006, -2.67825885164E+001, +0.00000000000E+000
+4.95776574900E+006, -2.68107176910E+001, +0.00000000000E+000
+4.95776668650E+006, -2.68368530256E+001, +0.00000000000E+000
+4.95776762400E+006, -2.68638343691E+001, +0.00000000000E+000
+4.95776856150E+006, -2.68902473223E+001, +0.00000000000E+000
+4.95776949900E+006, -2.69182837825E+001, +0.00000000000E+000
+4.95777043650E+006, -2.69465532904E+001, +0.00000000000E+000
+4.95777137400E+006, -2.69734683801E+001, +0.00000000000E+000
+4.95777231150E+006, -2.70024745624E+001, +0.00000000000E+000
+4.95777324900E+006, -2.70285139181E+001, +0.00000000000E+000
+4.95777418650E+006, -2.70564864436E+001, +0.00000000000E+000
+4.95777512400E+006, -2.70838234155E+001, +0.00000000000E+000
+4.95777606150E+006, -2.71108720576E+001, +0.00000000000E+000
+4.95777699900E+006, -2.71397632089E+001, +0.00000000000E+000
+4.95777793650E+006, -2.71668904040E+001, +0.00000000000E+000
+4.95777887400E+006, -2.71961227047E+001, +0.00000000000E+000
+4.95777981150E+006, -2.72246445734E+001, +0.00000000000E+000
+4.95778074900E+006, -2.72515977442E+001, +0.00000000000E+000
+4.95778168650E+006, -2.72814568415E+001, +0.00000000000E+000
+4.95778262400E+006, -2.73088078895E+001, +0.00000000000E+000
+4.95778356150E+006, -2.73376199245E+001, +0.00000000000E+000
+4.95778449900E+006, -2.73655923772E+001, +0.00000000000E+000
+4.95778543650E+006, -2.73932626497E+001, +0.00000000000E+000
+4.95778637400E+006, -2.74228539468E+001, +0.00000000000E+000
+4.95778731150E+006, -2.74525171139E+001, +0.00000000000E+000
+4.95778824900E+006, -2.74818880814E+001, +0.00000000000E+000
+4.95778918650E+006, -2.75113202165E+001, +0.00000000000E+000
+4.95779012400E+006, -2.75413395432E+001, +0.00000000000E+000
+4.95779106150E+006, -2.75693915156E+001, +0.00000000000E+000
+4.95779199900E+006, -2.75989716487E+001, +0.00000000000E+000
+4.95779293650E+006, -2.76306146302E+001, +0.00000000000E+000
+4.95779387400E+006, -2.76588042691E+001, +0.00000000000E+000
+4.95779481150E+006, -2.76889515125E+001, +0.00000000000E+000
+4.95779574900E+006, -2.77219753760E+001, +0.00000000000E+000
+4.95779668650E+006, -2.77482597821E+001, +0.00000000000E+000
+4.95779762400E+006, -2.77798809097E+001, +0.00000000000E+000
+4.95779856150E+006, -2.78100475577E+001, +0.00000000000E+000
+4.95779949900E+006, -2.78392266701E+001, +0.00000000000E+000
+4.95780043650E+006, -2.78686458641E+001, +0.00000000000E+000
+4.95780137400E+006, -2.78993475735E+001, +0.00000000000E+000
+4.95780231150E+006, -2.79297278668E+001, +0.00000000000E+000
+4.95780324900E+006, -2.79599780211E+001, +0.00000000000E+000
+4.95780418650E+006, -2.79895640265E+001, +0.00000000000E+000
+4.95780512400E+006, -2.80202802697E+001, +0.00000000000E+000
+4.95780606150E+006, -2.80519625053E+001, +0.00000000000E+000
+4.95780699900E+006, -2.80811081820E+001, +0.00000000000E+000
+4.95780793650E+006, -2.81143595239E+001, +0.00000000000E+000
+4.95780887400E+006, -2.81449045878E+001, +0.00000000000E+000
+4.95780981150E+006, -2.81757309466E+001, +0.00000000000E+000
+4.95781074900E+006, -2.82066050599E+001, +0.00000000000E+000
+4.95781168650E+006, -2.82365603868E+001, +0.00000000000E+000
+4.95781262400E+006, -2.82691270926E+001, +0.00000000000E+000
+4.95781356150E+006, -2.83013179478E+001, +0.00000000000E+000
+4.95781449900E+006, -2.83347728303E+001, +0.00000000000E+000
+4.95781543650E+006, -2.83664963078E+001, +0.00000000000E+000
+4.95781637400E+006, -2.83993562366E+001, +0.00000000000E+000
+4.95781731150E+006, -2.84316898304E+001, +0.00000000000E+000
+4.95781824900E+006, -2.84614624033E+001, +0.00000000000E+000
+4.95781918650E+006, -2.84943653579E+001, +0.00000000000E+000
+4.95782012400E+006, -2.85259603563E+001, +0.00000000000E+000
+4.95782106150E+006, -2.85594300803E+001, +0.00000000000E+000
+4.95782199900E+006, -2.85907445182E+001, +0.00000000000E+000
+4.95782293650E+006, -2.86241819237E+001, +0.00000000000E+000
+4.95782387400E+006, -2.86554736567E+001, +0.00000000000E+000
+4.95782481150E+006, -2.86874544226E+001, +0.00000000000E+000
+4.95782574900E+006, -2.87206603053E+001, +0.00000000000E+000
+4.95782668650E+006, -2.87543284696E+001, +0.00000000000E+000
+4.95782762400E+006, -2.87888692413E+001, +0.00000000000E+000
+4.95782856150E+006, -2.88213763588E+001, +0.00000000000E+000
+4.95782949900E+006, -2.88559475463E+001, +0.00000000000E+000
+4.95783043650E+006, -2.88895056760E+001, +0.00000000000E+000
+4.95783137400E+006, -2.89227963900E+001, +0.00000000000E+000
+4.95783231150E+006, -2.89561435594E+001, +0.00000000000E+000
+4.95783324900E+006, -2.89910465743E+001, +0.00000000000E+000
+4.95783418650E+006, -2.90252756800E+001, +0.00000000000E+000
+4.95783512400E+006, -2.90577575430E+001, +0.00000000000E+000
+4.95783606150E+006, -2.90922817309E+001, +0.00000000000E+000
+4.95783699900E+006, -2.91267341604E+001, +0.00000000000E+000
+4.95783793650E+006, -2.91612474107E+001, +0.00000000000E+000
+4.95783887400E+006, -2.91966968924E+001, +0.00000000000E+000
+4.95783981150E+006, -2.92306315010E+001, +0.00000000000E+000
+4.95784074900E+006, -2.92663442724E+001, +0.00000000000E+000
+4.95784168650E+006, -2.93007958643E+001, +0.00000000000E+000
+4.95784262400E+006, -2.93379661710E+001, +0.00000000000E+000
+4.95784356150E+006, -2.93720693468E+001, +0.00000000000E+000
+4.95784449900E+006, -2.94070198338E+001, +0.00000000000E+000
+4.95784543650E+006, -2.94438433401E+001, +0.00000000000E+000
+4.95784637400E+006, -2.94792210759E+001, +0.00000000000E+000
+4.95784731150E+006, -2.95135810274E+001, +0.00000000000E+000
+4.95784824900E+006, -2.95518103162E+001, +0.00000000000E+000
+4.95784918650E+006, -2.95882176855E+001, +0.00000000000E+000
+4.95785012400E+006, -2.96229907695E+001, +0.00000000000E+000
+4.95785106150E+006, -2.96594290886E+001, +0.00000000000E+000
+4.95785199900E+006, -2.96953345701E+001, +0.00000000000E+000
+4.95785293650E+006, -2.97330314929E+001, +0.00000000000E+000
+4.95785387400E+006, -2.97682405089E+001, +0.00000000000E+000
+4.95785481150E+006, -2.98077065352E+001, +0.00000000000E+000
+4.95785574900E+006, -2.98433285343E+001, +0.00000000000E+000
+4.95785668650E+006, -2.98799560442E+001, +0.00000000000E+000
+4.95785762400E+006, -2.99186778395E+001, +0.00000000000E+000
+4.95785856150E+006, -2.99542479734E+001, +0.00000000000E+000
+4.95785949900E+006, -2.99933218632E+001, +0.00000000000E+000
+4.95786043650E+006, -3.00291183311E+001, +0.00000000000E+000
+4.95786137400E+006, -3.00668635507E+001, +0.00000000000E+000
+4.95786231150E+006, -3.01052130643E+001, +0.00000000000E+000
+4.95786324900E+006, -3.01408882591E+001, +0.00000000000E+000
+4.95786418650E+006, -3.01812130995E+001, +0.00000000000E+000
+4.95786512400E+006, -3.02194753697E+001, +0.00000000000E+000
+4.95786606150E+006, -3.02568564603E+001, +0.00000000000E+000
+4.95786699900E+006, -3.02953372860E+001, +0.00000000000E+000
+4.95786793650E+006, -3.03330441479E+001, +0.00000000000E+000
+4.95786887400E+006, -3.03739242398E+001, +0.00000000000E+000
+4.95786981150E+006, -3.04123003516E+001, +0.00000000000E+000
+4.95787074900E+006, -3.04510074334E+001, +0.00000000000E+000
+4.95787168650E+006, -3.04920196978E+001, +0.00000000000E+000
+4.95787262400E+006, -3.05305851300E+001, +0.00000000000E+000
+4.95787356150E+006, -3.05716730631E+001, +0.00000000000E+000
+4.95787449900E+006, -3.06112381237E+001, +0.00000000000E+000
+4.95787543650E+006, -3.06521917015E+001, +0.00000000000E+000
+4.95787637400E+006, -3.06909768526E+001, +0.00000000000E+000
+4.95787731150E+006, -3.07300508361E+001, +0.00000000000E+000
+4.95787824900E+006, -3.07721061387E+001, +0.00000000000E+000
+4.95787918650E+006, -3.08112757614E+001, +0.00000000000E+000
+4.95788012400E+006, -3.08526910461E+001, +0.00000000000E+000
+4.95788106150E+006, -3.08933418706E+001, +0.00000000000E+000
+4.95788199900E+006, -3.09340518438E+001, +0.00000000000E+000
+4.95788293650E+006, -3.09757352223E+001, +0.00000000000E+000
+4.95788387400E+006, -3.10182096859E+001, +0.00000000000E+000
+4.95788481150E+006, -3.10574956825E+001, +0.00000000000E+000
+4.95788574900E+006, -3.10985555544E+001, +0.00000000000E+000
+4.95788668650E+006, -3.11389394123E+001, +0.00000000000E+000
+4.95788762400E+006, -3.11824049131E+001, +0.00000000000E+000
+4.95788856150E+006, -3.12233355878E+001, +0.00000000000E+000
+4.95788949900E+006, -3.12665936227E+001, +0.00000000000E+000
+4.95789043650E+006, -3.13098283321E+001, +0.00000000000E+000
+4.95789137400E+006, -3.13504051932E+001, +0.00000000000E+000
+4.95789231150E+006, -3.13931894839E+001, +0.00000000000E+000
+4.95789324900E+006, -3.14365689215E+001, +0.00000000000E+000
+4.95789418650E+006, -3.14804440056E+001, +0.00000000000E+000
+4.95789512400E+006, -3.15234900090E+001, +0.00000000000E+000
+4.95789606150E+006, -3.15654021038E+001, +0.00000000000E+000
+4.95789699900E+006, -3.16154361084E+001, +0.00000000000E+000
+4.95789793650E+006, -3.16582060235E+001, +0.00000000000E+000
+4.95789887400E+006, -3.17025099480E+001, +0.00000000000E+000
+4.95789981150E+006, -3.17472399852E+001, +0.00000000000E+000
+4.95790074900E+006, -3.17889632855E+001, +0.00000000000E+000
+4.95790168650E+006, -3.18325393306E+001, +0.00000000000E+000
+4.95790262400E+006, -3.18779601291E+001, +0.00000000000E+000
+4.95790356150E+006, -3.19227520248E+001, +0.00000000000E+000
+4.95790449900E+006, -3.19666673141E+001, +0.00000000000E+000
+4.95790543650E+006, -3.20220423298E+001, +0.00000000000E+000
+4.95790637400E+006, -3.20649564976E+001, +0.00000000000E+000
+4.95790731150E+006, -3.21087456976E+001, +0.00000000000E+000
+4.95790824900E+006, -3.21511583045E+001, +0.00000000000E+000
+4.95790918650E+006, -3.21967621530E+001, +0.00000000000E+000
+4.95791012400E+006, -3.22427452982E+001, +0.00000000000E+000
+4.95791106150E+006, -3.22867927557E+001, +0.00000000000E+000
+4.95791199900E+006, -3.23309926790E+001, +0.00000000000E+000
+4.95791293650E+006, -3.23774608062E+001, +0.00000000000E+000
+4.95791387400E+006, -3.24247971563E+001, +0.00000000000E+000
+4.95791481150E+006, -3.24741774790E+001, +0.00000000000E+000
+4.95791574900E+006, -3.25201629053E+001, +0.00000000000E+000
+4.95791668650E+006, -3.25650365302E+001, +0.00000000000E+000
+4.95791762400E+006, -3.26140475716E+001, +0.00000000000E+000
+4.95791856150E+006, -3.26616489401E+001, +0.00000000000E+000
+4.95791949900E+006, -3.27117331635E+001, +0.00000000000E+000
+4.95792043650E+006, -3.27605773947E+001, +0.00000000000E+000
+4.95792137400E+006, -3.28114824558E+001, +0.00000000000E+000
+4.95792231150E+006, -3.28567117846E+001, +0.00000000000E+000
+4.95792324900E+006, -3.29045829207E+001, +0.00000000000E+000
+4.95792418650E+006, -3.29551611897E+001, +0.00000000000E+000
+4.95792512400E+006, -3.30031525834E+001, +0.00000000000E+000
+4.95792606150E+006, -3.30508419486E+001, +0.00000000000E+000
+4.95792699900E+006, -3.30991856052E+001, +0.00000000000E+000
+4.95792793650E+006, -3.31502588537E+001, +0.00000000000E+000
+4.95792887400E+006, -3.31992232931E+001, +0.00000000000E+000
+4.95792981150E+006, -3.32483168404E+001, +0.00000000000E+000
+4.95793074900E+006, -3.32969863837E+001, +0.00000000000E+000
+4.95793168650E+006, -3.33497266023E+001, +0.00000000000E+000
+4.95793262400E+006, -3.33995562667E+001, +0.00000000000E+000
+4.95793356150E+006, -3.34492378055E+001, +0.00000000000E+000
+4.95793449900E+006, -3.35009630878E+001, +0.00000000000E+000
+4.95793543650E+006, -3.35514412618E+001, +0.00000000000E+000
+4.95793637400E+006, -3.36041441097E+001, +0.00000000000E+000
+4.95793731150E+006, -3.36547889584E+001, +0.00000000000E+000
+4.95793824900E+006, -3.37059903780E+001, +0.00000000000E+000
+4.95793918650E+006, -3.37583486404E+001, +0.00000000000E+000
+4.95794012400E+006, -3.38098383862E+001, +0.00000000000E+000
+4.95794106150E+006, -3.38628649362E+001, +0.00000000000E+000
+4.95794199900E+006, -3.39150080184E+001, +0.00000000000E+000
+4.95794293650E+006, -3.39669271688E+001, +0.00000000000E+000
+4.95794387400E+006, -3.40197403253E+001, +0.00000000000E+000
+4.95794481150E+006, -3.40738416059E+001, +0.00000000000E+000
+4.95794574900E+006, -3.41265391764E+001, +0.00000000000E+000
+4.95794668650E+006, -3.41800470970E+001, +0.00000000000E+000
+4.95794762400E+006, -3.42360771870E+001, +0.00000000000E+000
+4.95794856150E+006, -3.42892047816E+001, +0.00000000000E+000
+4.95794949900E+006, -3.43444511513E+001, +0.00000000000E+000
+4.95795043650E+006, -3.43986843700E+001, +0.00000000000E+000
+4.95795137400E+006, -3.44533262187E+001, +0.00000000000E+000
+4.95795231150E+006, -3.45077911233E+001, +0.00000000000E+000
+4.95795324900E+006, -3.45641013146E+001, +0.00000000000E+000
+4.95795418650E+006, -3.46220374364E+001, +0.00000000000E+000
+4.95795512400E+006, -3.46775307566E+001, +0.00000000000E+000
+4.95795606150E+006, -3.47335437530E+001, +0.00000000000E+000
+4.95795699900E+006, -3.47891177653E+001, +0.00000000000E+000
+4.95795793650E+006, -3.48471831893E+001, +0.00000000000E+000
+4.95795887400E+006, -3.49041759402E+001, +0.00000000000E+000
+4.95795981150E+006, -3.49643952794E+001, +0.00000000000E+000
+4.95796074900E+006, -3.50227174188E+001, +0.00000000000E+000
+4.95796168650E+006, -3.50818059885E+001, +0.00000000000E+000
+4.95796262400E+006, -3.51408303855E+001, +0.00000000000E+000
+4.95796356150E+006, -3.51987189209E+001, +0.00000000000E+000
+4.95796449900E+006, -3.52572663353E+001, +0.00000000000E+000
+4.95796543650E+006, -3.53155850632E+001, +0.00000000000E+000
+4.95796637400E+006, -3.53780850276E+001, +0.00000000000E+000
+4.95796731150E+006, -3.54406055874E+001, +0.00000000000E+000
+4.95796824900E+006, -3.54999167134E+001, +0.00000000000E+000
+4.95796918650E+006, -3.55571205328E+001, +0.00000000000E+000
+4.95797012400E+006, -3.56172710697E+001, +0.00000000000E+000
+4.95797106150E+006, -3.56785647627E+001, +0.00000000000E+000
+4.95797199900E+006, -3.57391831267E+001, +0.00000000000E+000
+4.95797293650E+006, -3.58029415938E+001, +0.00000000000E+000
+4.95797387400E+006, -3.58628859524E+001, +0.00000000000E+000
+4.95797481150E+006, -3.59223340416E+001, +0.00000000000E+000
+4.95797574900E+006, -3.59831263878E+001, +0.00000000000E+000
+4.95797668650E+006, -3.60416759939E+001, +0.00000000000E+000
+4.95797762400E+006, -3.61021704113E+001, +0.00000000000E+000
+4.95797856150E+006, -3.61665680999E+001, +0.00000000000E+000
+4.95797949900E+006, -3.62298119599E+001, +0.00000000000E+000
+4.95798043650E+006, -3.62914109707E+001, +0.00000000000E+000
+4.95798137400E+006, -3.63538762969E+001, +0.00000000000E+000
+4.95798231150E+006, -3.64188683442E+001, +0.00000000000E+000
+4.95798324900E+006, -3.64821642567E+001, +0.00000000000E+000
+4.95798418650E+006, -3.65477143568E+001, +0.00000000000E+000
+4.95798512400E+006, -3.66127168266E+001, +0.00000000000E+000
+4.95798606150E+006, -3.66806494098E+001, +0.00000000000E+000
+4.95798699900E+006, -3.67439802928E+001, +0.00000000000E+000
+4.95798793650E+006, -3.68112668468E+001, +0.00000000000E+000
+4.95798887400E+006, -3.68759842599E+001, +0.00000000000E+000
+4.95798981150E+006, -3.69432694555E+001, +0.00000000000E+000
+4.95799074900E+006, -3.70081026752E+001, +0.00000000000E+000
