"# Channel 1"
"# Trace 2"
Frequency, Formatted Data, Formatted Data
+4.95404500000E+006, -3.15620629516E+001, +0.00000000000E+000
+4.95405000000E+006, -3.17133171795E+001, +0.00000000000E+000
+4.95405500000E+006, -3.18866910421E+001, +0.00000000000E+000
+4.95406000000E+006, -3.20613709795E+001, +0.00000000000E+000
+4.95406500000E+006, -3.22404403275E+001, +0.00000000000E+000
+4.95407000000E+006, -3.24234020234E+001, +0.00000000000E+000
+4.95407500000E+006, -3.26107757614E+001, +0.00000000000E+000
+4.95408000000E+006, -3.28021557241E+001, +0.00000000000E+000
+4.95408500000E+006, -3.29962982162E+001, +0.00000000000E+000
+4.95409000000E+006, -3.31973562066E+001, +0.00000000000E+000
+4.95409500000E+006, -3.34016204560E+001, +0.00000000000E+000
+4.95410000000E+006, -3.36108507836E+001, +0.00000000000E+000
+4.95410500000E+006, -3.38253387330E+001, +0.00000000000E+000
+4.95411000000E+006, -3.40447139784E+001, +0.00000000000E+000
+4.95411500000E+006, -3.42695121690E+001, +0.00000000000E+000
+4.95412000000E+006, -3.45001597680E+001, +0.00000000000E+000
+4.95412500000E+006, -3.47357892247E+001, +0.00000000000E+000
+4.95413000000E+006, -3.49780276051E+001, +0.00000000000E+000
+4.95413500000E+006, -3.52268673921E+001, +0.00000000000E+000
+4.95414000000E+006, -3.54804092592E+001, +0.00000000000E+000
+4.95414500000E+006, -3.57420071381E+001, +0.00000000000E+000
+4.95415000000E+006, -3.60108270296E+001, +0.00000000000E+000
+4.95415500000E+006, -3.62863811355E+001, +0.00000000000E+000
+4.95416000000E+006, -3.65684800497E+001, +0.00000000000E+000
+4.95416500000E+006, -3.68604375268E+001, +0.00000000000E+000
+4.95417000000E+006, -3.71592362756E+001, +0.00000000000E+000
+4.95417500000E+006, -3.74658132222E+001, +0.00000000000E+000
+4.95418000000E+006, -3.77824168163E+001, +0.00000000000E+000
+4.95418500000E+006, -3.81089129093E+001, +0.00000000000E+000
+4.95419000000E+006, -3.84426622178E+001, +0.00000000000E+000
+4.95419500000E+006, -3.87881983175E+001, +0.00000000000E+000
+4.95420000000E+006, -3.91438890316E+001, +0.00000000000E+000
+4.95420500000E+006, -3.95101573364E+001, +0.00000000000E+000
+4.95421000000E+006, -3.98872993103E+001, +0.00000000000E+000
+4.95421500000E+006, -4.02778265618E+001, +0.00000000000E+000
+4.95422000000E+006, -4.06797276972E+001, +0.00000000000E+000
+4.95422500000E+006, -4.10946802244E+001, +0.00000000000E+000
+4.95423000000E+006, -4.15244964061E+001, +0.00000000000E+000
+4.95423500000E+006, -4.19674142232E+001, +0.00000000000E+000
+4.95424000000E+006, -4.24271462498E+001, +0.00000000000E+000
+4.95424500000E+006, -4.29023197038E+001, +0.00000000000E+000
+4.95425000000E+006, -4.33948878110E+001, +0.00000000000E+000
+4.95425500000E+006, -4.39051798285E+001, +0.00000000000E+000
+4.95426000000E+006, -4.44325250248E+001, +0.00000000000E+000
+4.95426500000E+006, -4.49826465669E+001, +0.00000000000E+000
+4.95427000000E+006, -4.55522087730E+001, +0.00000000000E+000
+4.95427500000E+006, -4.61427110574E+001, +0.00000000000E+000
+4.95428000000E+006, -4.67565923003E+001, +0.00000000000E+000
+4.95428500000E+006, -4.73955570478E+001, +0.00000000000E+000
+4.95429000000E+006, -4.80604367010E+001, +0.00000000000E+000
+4.95429500000E+006, -4.87533583848E+001, +0.00000000000E+000
+4.95430000000E+006, -4.94756838548E+001, +0.00000000000E+000
+4.95430500000E+006, -5.02286458781E+001, +0.00000000000E+000
+4.95431000000E+006, -5.10167261439E+001, +0.00000000000E+000
+4.95431500000E+006, -5.18391008108E+001, +0.00000000000E+000
+4.95432000000E+006, -5.26986515447E+001, +0.00000000000E+000
+4.95432500000E+006, -5.35972411276E+001, +0.00000000000E+000
+4.95433000000E+006, -5.45391741720E+001, +0.00000000000E+000
+4.95433500000E+006, -5.55263997049E+001, +0.00000000000E+000
+4.95434000000E+006, -5.65639750334E+001, +0.00000000000E+000
+4.95434500000E+006, -5.76542892289E+001, +0.00000000000E+000
+4.95435000000E+006, -5.88010260991E+001, +0.00000000000E+000
+4.95435500000E+006, -6.00051638354E+001, +0.00000000000E+000
+4.95436000000E+006, -6.12772486900E+001, +0.00000000000E+000
+4.95436500000E+006, -6.26194160626E+001, +0.00000000000E+000
+4.95437000000E+006, -6.40389988366E+001, +0.00000000000E+000
+4.95437500000E+006, -6.55406704173E+001, +0.00000000000E+000
+4.95438000000E+006, -6.71314271883E+001, +0.00000000000E+000
+4.95438500000E+006, -6.88201310515E+001, +0.00000000000E+000
+4.95439000000E+006, -7.06124774831E+001, +0.00000000000E+000
+4.95439500000E+006, -7.25222496650E+001, +0.00000000000E+000
+4.95440000000E+006, -7.45533576940E+001, +0.00000000000E+000
+4.95440500000E+006, -7.67068182910E+001, +0.00000000000E+000
+4.95441000000E+006, -7.90207571550E+001, +0.00000000000E+000
+4.95441500000E+006, -8.14901903381E+001, +0.00000000000E+000
+4.95442000000E+006, -8.41356227010E+001, +0.00000000000E+000
+4.95442500000E+006, -8.69663716389E+001, +0.00000000000E+000
+4.95443000000E+006, -9.00023958150E+001, +0.00000000000E+000
+4.95443500000E+006, -9.32577363100E+001, +0.00000000000E+000
+4.95444000000E+006, -9.67542073137E+001, +0.00000000000E+000
+4.95444500000E+006, -1.00510593199E+002, +0.00000000000E+000
+4.95445000000E+006, -1.04546655123E+002, +0.00000000000E+000
+4.95445500000E+006, -1.08887198230E+002, +0.00000000000E+000
+4.95446000000E+006, -1.13548041111E+002, +0.00000000000E+000
+4.95446500000E+006, -1.18557084001E+002, +0.00000000000E+000
+4.95447000000E+006, -1.23926796696E+002, +0.00000000000E+000
+4.95447500000E+006, -1.29676471900E+002, +0.00000000000E+000
+4.95448000000E+006, -1.35809372100E+002, +0.00000000000E+000
+4.95448500000E+006, -1.42330904529E+002, +0.00000000000E+000
+4.95449000000E+006, -1.49228106029E+002, +0.00000000000E+000
+4.95449500000E+006, -1.56494617454E+002, +0.00000000000E+000
+4.95450000000E+006, -1.64092805821E+002, +0.00000000000E+000
+4.95450500000E+006, -1.71990243956E+002, +0.00000000000E+000
+4.95451000000E+006, -1.80126748393E+002, +0.00000000000E+000
+4.95451500000E+006, -1.88437527240E+002, +0.00000000000E+000
+4.95452000000E+006, -1.96857425098E+002, +0.00000000000E+000
+4.95452500000E+006, -2.05311288561E+002, +0.00000000000E+000
+4.95453000000E+006, -2.13719634377E+002, +0.00000000000E+000
+4.95453500000E+006, -2.21994789708E+002, +0.00000000000E+000
+4.95454000000E+006, -2.30062645732E+002, +0.00000000000E+000
+4.95454500000E+006, -2.37854389944E+002, +0.00000000000E+000
+4.95455000000E+006, -2.45311120003E+002, +0.00000000000E+000
+4.95455500000E+006, -2.52386520341E+002, +0.00000000000E+000
+4.95456000000E+006, -2.59050193868E+002, +0.00000000000E+000
+4.95456500000E+006, -2.65289383615E+002, +0.00000000000E+000
+4.95457000000E+006, -2.71098379645E+002, +0.00000000000E+000
+4.95457500000E+006, -2.76489631160E+002, +0.00000000000E+000
+4.95458000000E+006, -2.81478982827E+002, +0.00000000000E+000
+4.95458500000E+006, -2.86090838344E+002, +0.00000000000E+000
+4.95459000000E+006, -2.90352286663E+002, +0.00000000000E+000
+4.95459500000E+006, -2.94289523111E+002, +0.00000000000E+000
+4.95460000000E+006, -2.97932296342E+002, +0.00000000000E+000
+4.95460500000E+006, -3.01302376493E+002, +0.00000000000E+000
+4.95461000000E+006, -3.04422241381E+002, +0.00000000000E+000
+4.95461500000E+006, -3.07319743841E+002, +0.00000000000E+000
+4.95462000000E+006, -3.10012459996E+002, +0.00000000000E+000
+4.95462500000E+006, -3.12512962945E+002, +0.00000000000E+000
+4.95463000000E+006, -3.14844844078E+002, +0.00000000000E+000
+4.95463500000E+006, -3.17021413712E+002, +0.00000000000E+000
+4.95464000000E+006, -3.19059838843E+002, +0.00000000000E+000
+4.95464500000E+006, -3.20966759813E+002, +0.00000000000E+000
+4.95465000000E+006, -3.22755241041E+002, +0.00000000000E+000
+4.95465500000E+006, -3.24436504444E+002, +0.00000000000E+000
+4.95466000000E+006, -3.26019973903E+002, +0.00000000000E+000
+4.95466500000E+006, -3.27513248619E+002, +0.00000000000E+000
+4.95467000000E+006, -3.28924270011E+002, +0.00000000000E+000
+4.95467500000E+006, -3.30258347896E+002, +0.00000000000E+000
+4.95468000000E+006, -3.31523164499E+002, +0.00000000000E+000
+4.95468500000E+006, -3.32718672428E+002, +0.00000000000E+000
+4.95469000000E+006, -3.33856674032E+002, +0.00000000000E+000
+4.95469500000E+006, -3.34938729074E+002, +0.00000000000E+000
+4.95470000000E+006, -3.35967902870E+002, +0.00000000000E+000
+4.95470500000E+006, -3.36947899660E+002, +0.00000000000E+000
+4.95471000000E+006, -3.37880700477E+002, +0.00000000000E+000
+4.95471500000E+006, -3.38771565288E+002, +0.00000000000E+000
+4.95472000000E+006, -3.39624132603E+002, +0.00000000000E+000
+4.95472500000E+006, -3.40438415034E+002, +0.00000000000E+000
+4.95473000000E+006, -3.41218809137E+002, +0.00000000000E+000
+4.95473500000E+006, -3.41965344120E+002, +0.00000000000E+000
+4.95474000000E+006, -3.42679938201E+002, +0.00000000000E+000
+4.95474500000E+006, -3.43364702788E+002, +0.00000000000E+000
+4.95475000000E+006, -3.44023846265E+002, +0.00000000000E+000
+4.95475500000E+006, -3.44656798802E+002, +0.00000000000E+000
+4.95476000000E+006, -3.45264867037E+002, +0.00000000000E+000
+4.95476500000E+006, -3.45850120371E+002, +0.00000000000E+000
+4.95477000000E+006, -3.46413923358E+002, +0.00000000000E+000
+4.95477500000E+006, -3.46957934854E+002, +0.00000000000E+000
+4.95478000000E+006, -3.47481373518E+002, +0.00000000000E+000
+4.95478500000E+006, -3.47986549700E+002, +0.00000000000E+000
+4.95479000000E+006, -3.48474750672E+002, +0.00000000000E+000
+4.95479500000E+006, -3.48946668757E+002, +0.00000000000E+000
+4.95480000000E+006, -3.49400484939E+002, +0.00000000000E+000
+4.95480500000E+006, -3.49840682619E+002, +0.00000000000E+000
+4.95481000000E+006, -3.50266736023E+002, +0.00000000000E+000
+4.95481500000E+006, -3.50680580718E+002, +0.00000000000E+000
+4.95482000000E+006, -3.51081090534E+002, +0.00000000000E+000
+4.95482500000E+006, -3.51467096463E+002, +0.00000000000E+000
+4.95483000000E+006, -3.51842851018E+002, +0.00000000000E+000
+4.95483500000E+006, -3.52207577507E+002, +0.00000000000E+000
+4.95484000000E+006, -3.52561447030E+002, +0.00000000000E+000
+4.95484500000E+006, -3.52904170819E+002, +0.00000000000E+000
+4.95485000000E+006, -3.53236905243E+002, +0.00000000000E+000
+4.95485500000E+006, -3.53559968929E+002, +0.00000000000E+000
+4.95486000000E+006, -3.53869369751E+002, +0.00000000000E+000
+4.95486500000E+006, -3.54176085015E+002, +0.00000000000E+000
+4.95487000000E+006, -3.54474933457E+002, +0.00000000000E+000
+4.95487500000E+006, -3.54763355181E+002, +0.00000000000E+000
+4.95488000000E+006, -3.55045468981E+002, +0.00000000000E+000
+4.95488500000E+006, -3.55319998557E+002, +0.00000000000E+000
+4.95489000000E+006, -3.55587773577E+002, +0.00000000000E+000
+4.95489500000E+006, -3.55848363232E+002, +0.00000000000E+000
+4.95490000000E+006, -3.56101073261E+002, +0.00000000000E+000
+4.95490500000E+006, -3.56348854195E+002, +0.00000000000E+000
+4.95491000000E+006, -3.56590426204E+002, +0.00000000000E+000
+4.95491500000E+006, -3.56827391667E+002, +0.00000000000E+000
+4.95492000000E+006, -3.57056104642E+002, +0.00000000000E+000
+4.95492500000E+006, -3.57280101912E+002, +0.00000000000E+000
+4.95493000000E+006, -3.57499874693E+002, +0.00000000000E+000
+4.95493500000E+006, -3.57713518454E+002, +0.00000000000E+000
+4.95494000000E+006, -3.57922981542E+002, +0.00000000000E+000
+4.95494500000E+006, -3.58126698625E+002, +0.00000000000E+000
+4.95495000000E+006, -3.58326314440E+002, +0.00000000000E+000
+4.95495500000E+006, -3.58521322044E+002, +0.00000000000E+000
+4.95496000000E+006, -3.58712670032E+002, +0.00000000000E+000
+4.95496500000E+006, -3.58899083901E+002, +0.00000000000E+000
+4.95497000000E+006, -3.59083512059E+002, +0.00000000000E+000
+4.95497500000E+006, -3.59261309518E+002, +0.00000000000E+000
+4.95498000000E+006, -3.59435569161E+002, +0.00000000000E+000
+4.95498500000E+006, -3.59607455681E+002, +0.00000000000E+000
+4.95499000000E+006, -3.59775377495E+002, +0.00000000000E+000
+4.95499500000E+006, -3.59938817299E+002, +0.00000000000E+000
+4.95500000000E+006, -3.60099793567E+002, +0.00000000000E+000
+4.95500500000E+006, -3.60256215912E+002, +0.00000000000E+000
+4.95501000000E+006, -3.60411436833E+002, +0.00000000000E+000
+4.95501500000E+006, -3.60562374656E+002, +0.00000000000E+000
+4.95502000000E+006, -3.60711576562E+002, +0.00000000000E+000
+4.95502500000E+006, -3.60857358866E+002, +0.00000000000E+000
+4.95503000000E+006, -3.61000384532E+002, +0.00000000000E+000
+4.95503500000E+006, -3.61139892047E+002, +0.00000000000E+000
+4.95504000000E+006, -3.61279226348E+002, +0.00000000000E+000
+4.95504500000E+006, -3.61413356572E+002, +0.00000000000E+000
