"# Channel 1"
"# Trace 2"
Frequency, Formatted Data, Formatted Data
+4.95328375000E+006, -2.42588331414E+001, +0.00000000000E+000
+4.95328500000E+006, -2.36633419200E+001, +0.00000000000E+000
+4.95328625000E+006, -2.33041001126E+001, +0.00000000000E+000
+4.95328750000E+006, -2.30878821983E+001, +0.00000000000E+000
+4.95328875000E+006, -2.29605727421E+001, +0.00000000000E+000
+4.95329000000E+006, -2.28920730998E+001, +0.00000000000E+000
+4.95329125000E+006, -2.28513180234E+001, +0.00000000000E+000
+4.95329250000E+006, -2.28341158160E+001, +0.00000000000E+000
+4.95329375000E+006, -2.28286296846E+001, +0.00000000000E+000
+4.95329500000E+006, -2.28287622029E+001, +0.00000000000E+000
+4.95329625000E+006, -2.28318361859E+001, +0.00000000000E+000
+4.95329750000E+006, -2.28383546444E+001, +0.00000000000E+000
+4.95329875000E+006, -2.28469520515E+001, +0.00000000000E+000
+4.95330000000E+006, -2.28541226047E+001, +0.00000000000E+000
+4.95330125000E+006, -2.28628123658E+001, +0.00000000000E+000
+4.95330250000E+006, -2.28719089586E+001, +0.00000000000E+000
+4.95330375000E+006, -2.28801876294E+001, +0.00000000000E+000
+4.95330500000E+006, -2.28881336264E+001, +0.00000000000E+000
+4.95330625000E+006, -2.28975930550E+001, +0.00000000000E+000
+4.95330750000E+006, -2.29060405200E+001, +0.00000000000E+000
+4.95330875000E+006, -2.29137484828E+001, +0.00000000000E+000
+4.95331000000E+006, -2.29223149826E+001, +0.00000000000E+000
+4.95331125000E+006, -2.29305985776E+001, +0.00000000000E+000
+4.95331250000E+006, -2.29383576211E+001, +0.00000000000E+000
+4.95331375000E+006, -2.29479542826E+001, +0.00000000000E+000
+4.95331500000E+006, -2.29556964247E+001, +0.00000000000E+000
+4.95331625000E+006, -2.29641168379E+001, +0.00000000000E+000
+4.95331750000E+006, -2.29729105950E+001, +0.00000000000E+000
+4.95331875000E+006, -2.29822923556E+001, +0.00000000000E+000
+4.95332000000E+006, -2.29908131646E+001, +0.00000000000E+000
+4.95332125000E+006, -2.29988238461E+001, +0.00000000000E+000
+4.95332250000E+006, -2.30084235541E+001, +0.00000000000E+000
+4.95332375000E+006, -2.30171972171E+001, +0.00000000000E+000
+4.95332500000E+006, -2.30258129135E+001, +0.00000000000E+000
+4.95332625000E+006, -2.30336176266E+001, +0.00000000000E+000
+4.95332750000E+006, -2.30436758998E+001, +0.00000000000E+000
+4.95332875000E+006, -2.30533280534E+001, +0.00000000000E+000
+4.95333000000E+006, -2.30597531279E+001, +0.00000000000E+000
+4.95333125000E+006, -2.30706359875E+001, +0.00000000000E+000
+4.95333250000E+006, -2.30781526951E+001, +0.00000000000E+000
+4.95333375000E+006, -2.30886630405E+001, +0.00000000000E+000
+4.95333500000E+006, -2.30964881806E+001, +0.00000000000E+000
+4.95333625000E+006, -2.31045284217E+001, +0.00000000000E+000
+4.95333750000E+006, -2.31135491170E+001, +0.00000000000E+000
+4.95333875000E+006, -2.31214291364E+001, +0.00000000000E+000
+4.95334000000E+006, -2.31313039060E+001, +0.00000000000E+000
+4.95334125000E+006, -2.31414975636E+001, +0.00000000000E+000
+4.95334250000E+006, -2.31514644697E+001, +0.00000000000E+000
+4.95334375000E+006, -2.31597776527E+001, +0.00000000000E+000
+4.95334500000E+006, -2.31676622666E+001, +0.00000000000E+000
+4.95334625000E+006, -2.31764822621E+001, +0.00000000000E+000
+4.95334750000E+006, -2.31856497755E+001, +0.00000000000E+000
+4.95334875000E+006, -2.31932298239E+001, +0.00000000000E+000
+4.95335000000E+006, -2.32040030882E+001, +0.00000000000E+000
+4.95335125000E+006, -2.32130664298E+001, +0.00000000000E+000
+4.95335250000E+006, -2.32224032310E+001, +0.00000000000E+000
+4.95335375000E+006, -2.32312607395E+001, +0.00000000000E+000
+4.95335500000E+006, -2.32414067010E+001, +0.00000000000E+000
+4.95335625000E+006, -2.32505252869E+001, +0.00000000000E+000
+4.95335750000E+006, -2.32611198595E+001, +0.00000000000E+000
+4.95335875000E+006, -2.32705588135E+001, +0.00000000000E+000
+4.95336000000E+006, -2.32784916889E+001, +0.00000000000E+000
+4.95336125000E+006, -2.32861159934E+001, +0.00000000000E+000
+4.95336250000E+006, -2.32984492512E+001, +0.00000000000E+000
+4.95336375000E+006, -2.33085111348E+001, +0.00000000000E+000
+4.95336500000E+006, -2.33151078401E+001, +0.00000000000E+000
+4.95336625000E+006, -2.33253878111E+001, +0.00000000000E+000
+4.95336750000E+006, -2.33360173102E+001, +0.00000000000E+000
+4.95336875000E+006, -2.33470266582E+001, +0.00000000000E+000
+4.95337000000E+006, -2.33533175641E+001, +0.00000000000E+000
+4.95337125000E+006, -2.33651700875E+001, +0.00000000000E+000
+4.95337250000E+006, -2.33712280253E+001, +0.00000000000E+000
+4.95337375000E+006, -2.33841750522E+001, +0.00000000000E+000
+4.95337500000E+006, -2.33933592704E+001, +0.00000000000E+000
+4.95337625000E+006, -2.34030065192E+001, +0.00000000000E+000
+4.95337750000E+006, -2.34121763711E+001, +0.00000000000E+000
+4.95337875000E+006, -2.34225511671E+001, +0.00000000000E+000
+4.95338000000E+006, -2.34326855356E+001, +0.00000000000E+000
+4.95338125000E+006, -2.34426251883E+001, +0.00000000000E+000
+4.95338250000E+006, -2.34531784126E+001, +0.00000000000E+000
+4.95338375000E+006, -2.34616639929E+001, +0.00000000000E+000
+4.95338500000E+006, -2.34737807819E+001, +0.00000000000E+000
+4.95338625000E+006, -2.34827413673E+001, +0.00000000000E+000
+4.95338750000E+006, -2.34920369381E+001, +0.00000000000E+000
+4.95338875000E+006, -2.35021748574E+001, +0.00000000000E+000
+4.95339000000E+006, -2.35134654748E+001, +0.00000000000E+000
+4.95339125000E+006, -2.35240137235E+001, +0.00000000000E+000
+4.95339250000E+006, -2.35323740781E+001, +0.00000000000E+000
+4.95339375000E+006, -2.35424891454E+001, +0.00000000000E+000
+4.95339500000E+006, -2.35540167371E+001, +0.00000000000E+000
+4.95339625000E+006, -2.35624455941E+001, +0.00000000000E+000
+4.95339750000E+006, -2.35720190223E+001, +0.00000000000E+000
+4.95339875000E+006, -2.35843945979E+001, +0.00000000000E+000
+4.95340000000E+006, -2.35938078892E+001, +0.00000000000E+000
+4.95340125000E+006, -2.36042047534E+001, +0.00000000000E+000
+4.95340250000E+006, -2.36165515001E+001, +0.00000000000E+000
+4.95340375000E+006, -2.36236377333E+001, +0.00000000000E+000
+4.95340500000E+006, -2.36346049881E+001, +0.00000000000E+000
+4.95340625000E+006, -2.36450446602E+001, +0.00000000000E+000
+4.95340750000E+006, -2.36576301041E+001, +0.00000000000E+000
+4.95340875000E+006, -2.36672133588E+001, +0.00000000000E+000
+4.95341000000E+006, -2.36771402380E+001, +0.00000000000E+000
+4.95341125000E+006, -2.36865919685E+001, +0.00000000000E+000
+4.95341250000E+006, -2.36982456279E+001, +0.00000000000E+000
+4.95341375000E+006, -2.37090925063E+001, +0.00000000000E+000
+4.95341500000E+006, -2.37205156100E+001, +0.00000000000E+000
+4.95341625000E+006, -2.37299285066E+001, +0.00000000000E+000
+4.95341750000E+006, -2.37408538733E+001, +0.00000000000E+000
+4.95341875000E+006, -2.37503181297E+001, +0.00000000000E+000
+4.95342000000E+006, -2.37605660980E+001, +0.00000000000E+000
+4.95342125000E+006, -2.37714712477E+001, +0.00000000000E+000
+4.95342250000E+006, -2.37828083454E+001, +0.00000000000E+000
+4.95342375000E+006, -2.37938020805E+001, +0.00000000000E+000
+4.95342500000E+006, -2.38050574704E+001, +0.00000000000E+000
+4.95342625000E+006, -2.38173973546E+001, +0.00000000000E+000
+4.95342750000E+006, -2.38278439107E+001, +0.00000000000E+000
+4.95342875000E+006, -2.38373963597E+001, +0.00000000000E+000
+4.95343000000E+006, -2.38480920354E+001, +0.00000000000E+000
+4.95343125000E+006, -2.38592511435E+001, +0.00000000000E+000
+4.95343250000E+006, -2.38701941694E+001, +0.00000000000E+000
+4.95343375000E+006, -2.38821313872E+001, +0.00000000000E+000
+4.95343500000E+006, -2.38935366262E+001, +0.00000000000E+000
+4.95343625000E+006, -2.39048873047E+001, +0.00000000000E+000
+4.95343750000E+006, -2.39171806184E+001, +0.00000000000E+000
+4.95343875000E+006, -2.39260653442E+001, +0.00000000000E+000
+4.95344000000E+006, -2.39378572951E+001, +0.00000000000E+000
+4.95344125000E+006, -2.39477049515E+001, +0.00000000000E+000
+4.95344250000E+006, -2.39589768812E+001, +0.00000000000E+000
+4.95344375000E+006, -2.39712408583E+001, +0.00000000000E+000
+4.95344500000E+006, -2.39844397215E+001, +0.00000000000E+000
+4.95344625000E+006, -2.39938560376E+001, +0.00000000000E+000
+4.95344750000E+006, -2.40058376096E+001, +0.00000000000E+000
+4.95344875000E+006, -2.40190232058E+001, +0.00000000000E+000
+4.95345000000E+006, -2.40301417326E+001, +0.00000000000E+000
+4.95345125000E+006, -2.40401628518E+001, +0.00000000000E+000
+4.95345250000E+006, -2.40533261334E+001, +0.00000000000E+000
+4.95345375000E+006, -2.40628612902E+001, +0.00000000000E+000
+4.95345500000E+006, -2.40750757047E+001, +0.00000000000E+000
+4.95345625000E+006, -2.40885335268E+001, +0.00000000000E+000
+4.95345750000E+006, -2.41002723504E+001, +0.00000000000E+000
+4.95345875000E+006, -2.41096037554E+001, +0.00000000000E+000
+4.95346000000E+006, -2.41229000766E+001, +0.00000000000E+000
+4.95346125000E+006, -2.41341637620E+001, +0.00000000000E+000
+4.95346250000E+006, -2.41451905719E+001, +0.00000000000E+000
+4.95346375000E+006, -2.41612859415E+001, +0.00000000000E+000
+4.95346500000E+006, -2.41698295264E+001, +0.00000000000E+000
+4.95346625000E+006, -2.41822748915E+001, +0.00000000000E+000
+4.95346750000E+006, -2.41937689153E+001, +0.00000000000E+000
+4.95346875000E+006, -2.42054323654E+001, +0.00000000000E+000
+4.95347000000E+006, -2.42185920093E+001, +0.00000000000E+000
+4.95347125000E+006, -2.42301424482E+001, +0.00000000000E+000
+4.95347250000E+006, -2.42419175791E+001, +0.00000000000E+000
+4.95347375000E+006, -2.42560086448E+001, +0.00000000000E+000
+4.95347500000E+006, -2.42647203333E+001, +0.00000000000E+000
+4.95347625000E+006, -2.42782720993E+001, +0.00000000000E+000
+4.95347750000E+006, -2.42897587694E+001, +0.00000000000E+000
+4.95347875000E+006, -2.43021462021E+001, +0.00000000000E+000
+4.95348000000E+006, -2.43160473296E+001, +0.00000000000E+000
+4.95348125000E+006, -2.43292123668E+001, +0.00000000000E+000
+4.95348250000E+006, -2.43398920372E+001, +0.00000000000E+000
+4.95348375000E+006, -2.43531899845E+001, +0.00000000000E+000
+4.95348500000E+006, -2.43673662863E+001, +0.00000000000E+000
+4.95348625000E+006, -2.43799304314E+001, +0.00000000000E+000
+4.95348750000E+006, -2.43915215330E+001, +0.00000000000E+000
+4.95348875000E+006, -2.44049718114E+001, +0.00000000000E+000
+4.95349000000E+006, -2.44189606282E+001, +0.00000000000E+000
+4.95349125000E+006, -2.44314458407E+001, +0.00000000000E+000
+4.95349250000E+006, -2.44418100121E+001, +0.00000000000E+000
+4.95349375000E+006, -2.44564663931E+001, +0.00000000000E+000
+4.95349500000E+006, -2.44667303768E+001, +0.00000000000E+000
+4.95349625000E+006, -2.44821105368E+001, +0.00000000000E+000
+4.95349750000E+006, -2.44935446886E+001, +0.00000000000E+000
+4.95349875000E+006, -2.45069447009E+001, +0.00000000000E+000
+4.95350000000E+006, -2.45212856236E+001, +0.00000000000E+000
+4.95350125000E+006, -2.45323237230E+001, +0.00000000000E+000
+4.95350250000E+006, -2.45456460642E+001, +0.00000000000E+000
+4.95350375000E+006, -2.45584473604E+001, +0.00000000000E+000
+4.95350500000E+006, -2.45696190030E+001, +0.00000000000E+000
+4.95350625000E+006, -2.45857630729E+001, +0.00000000000E+000
+4.95350750000E+006, -2.45990423668E+001, +0.00000000000E+000
+4.95350875000E+006, -2.46124186336E+001, +0.00000000000E+000
+4.95351000000E+006, -2.46246915653E+001, +0.00000000000E+000
+4.95351125000E+006, -2.46377937375E+001, +0.00000000000E+000
+4.95351250000E+006, -2.46515715285E+001, +0.00000000000E+000
+4.95351375000E+006, -2.46652358346E+001, +0.00000000000E+000
+4.95351500000E+006, -2.46788830428E+001, +0.00000000000E+000
+4.95351625000E+006, -2.46942616761E+001, +0.00000000000E+000
+4.95351750000E+006, -2.47053690501E+001, +0.00000000000E+000
+4.95351875000E+006, -2.47204917770E+001, +0.00000000000E+000
+4.95352000000E+006, -2.47334915457E+001, +0.00000000000E+000
+4.95352125000E+006, -2.47463875121E+001, +0.00000000000E+000
+4.95352250000E+006, -2.47606556212E+001, +0.00000000000E+000
+4.95352375000E+006, -2.47737931770E+001, +0.00000000000E+000
+4.95352500000E+006, -2.47870471335E+001, +0.00000000000E+000
+4.95352625000E+006, -2.48024259135E+001, +0.00000000000E+000
+4.95352750000E+006, -2.48165115993E+001, +0.00000000000E+000
+4.95352875000E+006, -2.48320267599E+001, +0.00000000000E+000
+4.95353000000E+006, -2.48458105883E+001, +0.00000000000E+000
+4.95353125000E+006, -2.48592326543E+001, +0.00000000000E+000
+4.95353250000E+006, -2.48724123459E+001, +0.00000000000E+000
+4.95353375000E+006, -2.48877801403E+001, +0.00000000000E+000
+4.95353500000E+006, -2.48998802545E+001, +0.00000000000E+000
+4.95353625000E+006, -2.49141970951E+001, +0.00000000000E+000
+4.95353750000E+006, -2.49313194642E+001, +0.00000000000E+000
+4.95353875000E+006, -2.49442209452E+001, +0.00000000000E+000
+4.95354000000E+006, -2.49580950900E+001, +0.00000000000E+000
+4.95354125000E+006, -2.49732925814E+001, +0.00000000000E+000
+4.95354250000E+006, -2.49860145646E+001, +0.00000000000E+000
+4.95354375000E+006, -2.50028427551E+001, +0.00000000000E+000
+4.95354500000E+006, -2.50170256290E+001, +0.00000000000E+000
+4.95354625000E+006, -2.50302152173E+001, +0.00000000000E+000
+4.95354750000E+006, -2.50479836952E+001, +0.00000000000E+000
+4.95354875000E+006, -2.50609833342E+001, +0.00000000000E+000
+4.95355000000E+006, -2.50776305157E+001, +0.00000000000E+000
+4.95355125000E+006, -2.50899005881E+001, +0.00000000000E+000
+4.95355250000E+006, -2.51048312394E+001, +0.00000000000E+000
+4.95355375000E+006, -2.51198573186E+001, +0.00000000000E+000
+4.95355500000E+006, -2.51331745493E+001, +0.00000000000E+000
+4.95355625000E+006, -2.51536420733E+001, +0.00000000000E+000
+4.95355750000E+006, -2.51667072874E+001, +0.00000000000E+000
+4.95355875000E+006, -2.51806063213E+001, +0.00000000000E+000
+4.95356000000E+006, -2.51957225829E+001, +0.00000000000E+000
+4.95356125000E+006, -2.52117116420E+001, +0.00000000000E+000
+4.95356250000E+006, -2.52263106744E+001, +0.00000000000E+000
+4.95356375000E+006, -2.52412705355E+001, +0.00000000000E+000
+4.95356500000E+006, -2.52566113487E+001, +0.00000000000E+000
+4.95356625000E+006, -2.52730305106E+001, +0.00000000000E+000
+4.95356750000E+006, -2.52877196393E+001, +0.00000000000E+000
+4.95356875000E+006, -2.53048370954E+001, +0.00000000000E+000
+4.95357000000E+006, -2.53179328722E+001, +0.00000000000E+000
+4.95357125000E+006, -2.53332192660E+001, +0.00000000000E+000
+4.95357250000E+006, -2.53509723600E+001, +0.00000000000E+000
+4.95357375000E+006, -2.53661324996E+001, +0.00000000000E+000
+4.95357500000E+006, -2.53818058539E+001, +0.00000000000E+000
+4.95357625000E+006, -2.53975085249E+001, +0.00000000000E+000
+4.95357750000E+006, -2.54155759847E+001, +0.00000000000E+000
+4.95357875000E+006, -2.54297082955E+001, +0.00000000000E+000
+4.95358000000E+006, -2.54471372460E+001, +0.00000000000E+000
+4.95358125000E+006, -2.54625937859E+001, +0.00000000000E+000
+4.95358250000E+006, -2.54800303320E+001, +0.00000000000E+000
+4.95358375000E+006, -2.54938705382E+001, +0.00000000000E+000
+4.95358500000E+006, -2.55104980418E+001, +0.00000000000E+000
+4.95358625000E+006, -2.55283703373E+001, +0.00000000000E+000
+4.95358750000E+006, -2.55422613655E+001, +0.00000000000E+000
+4.95358875000E+006, -2.55598575029E+001, +0.00000000000E+000
+4.95359000000E+006, -2.55782141771E+001, +0.00000000000E+000
+4.95359125000E+006, -2.55918005588E+001, +0.00000000000E+000
+4.95359250000E+006, -2.56105883941E+001, +0.00000000000E+000
+4.95359375000E+006, -2.56281730975E+001, +0.00000000000E+000
+4.95359500000E+006, -2.56449581352E+001, +0.00000000000E+000
+4.95359625000E+006, -2.56599082681E+001, +0.00000000000E+000
+4.95359750000E+006, -2.56779438309E+001, +0.00000000000E+000
+4.95359875000E+006, -2.56945381761E+001, +0.00000000000E+000
+4.95360000000E+006, -2.57100721848E+001, +0.00000000000E+000
+4.95360125000E+006, -2.57288639620E+001, +0.00000000000E+000
+4.95360250000E+006, -2.57436378089E+001, +0.00000000000E+000
+4.95360375000E+006, -2.57616494767E+001, +0.00000000000E+000
+4.95360500000E+006, -2.57793278742E+001, +0.00000000000E+000
+4.95360625000E+006, -2.57974920991E+001, +0.00000000000E+000
+4.95360750000E+006, -2.58151818053E+001, +0.00000000000E+000
+4.95360875000E+006, -2.58330952591E+001, +0.00000000000E+000
+4.95361000000E+006, -2.58499177021E+001, +0.00000000000E+000
+4.95361125000E+006, -2.58675004787E+001, +0.00000000000E+000
+4.95361250000E+006, -2.58843035087E+001, +0.00000000000E+000
+4.95361375000E+006, -2.59019815056E+001, +0.00000000000E+000
+4.95361500000E+006, -2.59187022888E+001, +0.00000000000E+000
+4.95361625000E+006, -2.59373985859E+001, +0.00000000000E+000
+4.95361750000E+006, -2.59555928740E+001, +0.00000000000E+000
+4.95361875000E+006, -2.59730370039E+001, +0.00000000000E+000
+4.95362000000E+006, -2.59912367005E+001, +0.00000000000E+000
+4.95362125000E+006, -2.60104247718E+001, +0.00000000000E+000
+4.95362250000E+006, -2.60274412090E+001, +0.00000000000E+000
+4.95362375000E+006, -2.60438732120E+001, +0.00000000000E+000
+4.95362500000E+006, -2.60637287360E+001, +0.00000000000E+000
+4.95362625000E+006, -2.60827035484E+001, +0.00000000000E+000
+4.95362750000E+006, -2.60991756266E+001, +0.00000000000E+000
+4.95362875000E+006, -2.61183849490E+001, +0.00000000000E+000
+4.95363000000E+006, -2.61354201464E+001, +0.00000000000E+000
+4.95363125000E+006, -2.61562939723E+001, +0.00000000000E+000
+4.95363250000E+006, -2.61732295982E+001, +0.00000000000E+000
+4.95363375000E+006, -2.61934201243E+001, +0.00000000000E+000
+4.95363500000E+006, -2.62120469575E+001, +0.00000000000E+000
+4.95363625000E+006, -2.62314045351E+001, +0.00000000000E+000
+4.95363750000E+006, -2.62526803488E+001, +0.00000000000E+000
+4.95363875000E+006, -2.62692525220E+001, +0.00000000000E+000
+4.95364000000E+006, -2.62893583751E+001, +0.00000000000E+000
+4.95364125000E+006, -2.63070987019E+001, +0.00000000000E+000
+4.95364250000E+006, -2.63265612131E+001, +0.00000000000E+000
+4.95364375000E+006, -2.63441112742E+001, +0.00000000000E+000
+4.95364500000E+006, -2.63640432077E+001, +0.00000000000E+000
+4.95364625000E+006, -2.63836421798E+001, +0.00000000000E+000
+4.95364750000E+006, -2.64041131574E+001, +0.00000000000E+000
+4.95364875000E+006, -2.64233643200E+001, +0.00000000000E+000
+4.95365000000E+006, -2.64436268085E+001, +0.00000000000E+000
+4.95365125000E+006, -2.64606960038E+001, +0.00000000000E+000
+4.95365250000E+006, -2.64808796683E+001, +0.00000000000E+000
+4.95365375000E+006, -2.65023386655E+001, +0.00000000000E+000
+4.95365500000E+006, -2.65230217602E+001, +0.00000000000E+000
+4.95365625000E+006, -2.65407873702E+001, +0.00000000000E+000
+4.95365750000E+006, -2.65615571022E+001, +0.00000000000E+000
+4.95365875000E+006, -2.65828935614E+001, +0.00000000000E+000
+4.95366000000E+006, -2.66007989290E+001, +0.00000000000E+000
+4.95366125000E+006, -2.66215276488E+001, +0.00000000000E+000
+4.95366250000E+006, -2.66429594175E+001, +0.00000000000E+000
+4.95366375000E+006, -2.66638390874E+001, +0.00000000000E+000
+4.95366500000E+006, -2.66833803044E+001, +0.00000000000E+000
+4.95366625000E+006, -2.67039160918E+001, +0.00000000000E+000
+4.95366750000E+006, -2.67261063186E+001, +0.00000000000E+000
+4.95366875000E+006, -2.67458217688E+001, +0.00000000000E+000
+4.95367000000E+006, -2.67675301168E+001, +0.00000000000E+000
+4.95367125000E+006, -2.67894678322E+001, +0.00000000000E+000
+4.95367250000E+006, -2.68074264801E+001, +0.00000000000E+000
+4.95367375000E+006, -2.68311805749E+001, +0.00000000000E+000
+4.95367500000E+006, -2.68540075184E+001, +0.00000000000E+000
+4.95367625000E+006, -2.68715296315E+001, +0.00000000000E+000
+4.95367750000E+006, -2.68959127601E+001, +0.00000000000E+000
+4.95367875000E+006, -2.69159280314E+001, +0.00000000000E+000
+4.95368000000E+006, -2.69369758460E+001, +0.00000000000E+000
+4.95368125000E+006, -2.69596276092E+001, +0.00000000000E+000
+4.95368250000E+006, -2.69812128094E+001, +0.00000000000E+000
+4.95368375000E+006, -2.70022678068E+001, +0.00000000000E+000
