"# Channel 1"
"# Trace 2"
Frequency, Formatted Data, Formatted Data
+4.95036375000E+006, -1.54104947212E+001, +0.00000000000E+000
+4.95037000000E+006, -1.54185535893E+001, +0.00000000000E+000
+4.95037625000E+006, -1.54240013262E+001, +0.00000000000E+000
+4.95038250000E+006, -1.54267519374E+001, +0.00000000000E+000
+4.95038875000E+006, -1.54322111809E+001, +0.00000000000E+000
+4.95039500000E+006, -1.54377661589E+001, +0.00000000000E+000
+4.95040125000E+006, -1.54400984027E+001, +0.00000000000E+000
+4.95040750000E+006, -1.54442793854E+001, +0.00000000000E+000
+4.95041375000E+006, -1.54506782869E+001, +0.00000000000E+000
+4.95042000000E+006, -1.54548369441E+001, +0.00000000000E+000
+4.95042625000E+006, -1.54577273078E+001, +0.00000000000E+000
+4.95043250000E+006, -1.54627039862E+001, +0.00000000000E+000
+4.95043875000E+006, -1.54703799070E+001, +0.00000000000E+000
+4.95044500000E+006, -1.54772204360E+001, +0.00000000000E+000
+4.95045125000E+006, -1.54827396282E+001, +0.00000000000E+000
+4.95045750000E+006, -1.54899015098E+001, +0.00000000000E+000
+4.95046375000E+006, -1.54971173483E+001, +0.00000000000E+000
+4.95047000000E+006, -1.55021989822E+001, +0.00000000000E+000
+4.95047625000E+006, -1.55064963521E+001, +0.00000000000E+000
+4.95048250000E+006, -1.55142806205E+001, +0.00000000000E+000
+4.95048875000E+006, -1.55197005747E+001, +0.00000000000E+000
+4.95049500000E+006, -1.55235892827E+001, +0.00000000000E+000
+4.95050125000E+006, -1.55274413236E+001, +0.00000000000E+000
+4.95050750000E+006, -1.55345420579E+001, +0.00000000000E+000
+4.95051375000E+006, -1.55381249365E+001, +0.00000000000E+000
+4.95052000000E+006, -1.55409156442E+001, +0.00000000000E+000
+4.95052625000E+006, -1.55493116605E+001, +0.00000000000E+000
+4.95053250000E+006, -1.55564669833E+001, +0.00000000000E+000
+4.95053875000E+006, -1.55600738823E+001, +0.00000000000E+000
+4.95054500000E+006, -1.55681933937E+001, +0.00000000000E+000
+4.95055125000E+006, -1.55759038714E+001, +0.00000000000E+000
+4.95055750000E+006, -1.55810676573E+001, +0.00000000000E+000
+4.95056375000E+006, -1.55872676500E+001, +0.00000000000E+000
+4.95057000000E+006, -1.55948182627E+001, +0.00000000000E+000
+4.95057625000E+006, -1.56014443888E+001, +0.00000000000E+000
+4.95058250000E+006, -1.56050412768E+001, +0.00000000000E+000
+4.95058875000E+006, -1.56125071810E+001, +0.00000000000E+000
+4.95059500000E+006, -1.56177958819E+001, +0.00000000000E+000
+4.95060125000E+006, -1.56230474044E+001, +0.00000000000E+000
+4.95060750000E+006, -1.56266080061E+001, +0.00000000000E+000
+4.95061375000E+006, -1.56338389159E+001, +0.00000000000E+000
+4.95062000000E+006, -1.56398056108E+001, +0.00000000000E+000
+4.95062625000E+006, -1.56445805535E+001, +0.00000000000E+000
+4.95063250000E+006, -1.56518947754E+001, +0.00000000000E+000
+4.95063875000E+006, -1.56592287950E+001, +0.00000000000E+000
+4.95064500000E+006, -1.56644925851E+001, +0.00000000000E+000
+4.95065125000E+006, -1.56717016707E+001, +0.00000000000E+000
+4.95065750000E+006, -1.56802425617E+001, +0.00000000000E+000
+4.95066375000E+006, -1.56873017165E+001, +0.00000000000E+000
+4.95067000000E+006, -1.56939456910E+001, +0.00000000000E+000
+4.95067625000E+006, -1.57006551276E+001, +0.00000000000E+000
+4.95068250000E+006, -1.57067370507E+001, +0.00000000000E+000
+4.95068875000E+006, -1.57120158465E+001, +0.00000000000E+000
+4.95069500000E+006, -1.57176749671E+001, +0.00000000000E+000
+4.95070125000E+006, -1.57243697798E+001, +0.00000000000E+000
+4.95070750000E+006, -1.57302046378E+001, +0.00000000000E+000
+4.95071375000E+006, -1.57359744978E+001, +0.00000000000E+000
+4.95072000000E+006, -1.57424868187E+001, +0.00000000000E+000
+4.95072625000E+006, -1.57491604430E+001, +0.00000000000E+000
+4.95073250000E+006, -1.57556434151E+001, +0.00000000000E+000
+4.95073875000E+006, -1.57626682579E+001, +0.00000000000E+000
+4.95074500000E+006, -1.57694746803E+001, +0.00000000000E+000
+4.95075125000E+006, -1.57743225217E+001, +0.00000000000E+000
+4.95075750000E+006, -1.57823754822E+001, +0.00000000000E+000
+4.95076375000E+006, -1.57893164073E+001, +0.00000000000E+000
+4.95077000000E+006, -1.57972861203E+001, +0.00000000000E+000
+4.95077625000E+006, -1.58031803515E+001, +0.00000000000E+000
+4.95078250000E+006, -1.58099728173E+001, +0.00000000000E+000
+4.95078875000E+006, -1.58166511398E+001, +0.00000000000E+000
+4.95079500000E+006, -1.58236472807E+001, +0.00000000000E+000
+4.95080125000E+006, -1.58287722494E+001, +0.00000000000E+000
+4.95080750000E+006, -1.58359159293E+001, +0.00000000000E+000
+4.95081375000E+006, -1.58429700251E+001, +0.00000000000E+000
+4.95082000000E+006, -1.58488823466E+001, +0.00000000000E+000
+4.95082625000E+006, -1.58555847597E+001, +0.00000000000E+000
+4.95083250000E+006, -1.58628698178E+001, +0.00000000000E+000
+4.95083875000E+006, -1.58705991105E+001, +0.00000000000E+000
+4.95084500000E+006, -1.58761478342E+001, +0.00000000000E+000
+4.95085125000E+006, -1.58841592597E+001, +0.00000000000E+000
+4.95085750000E+006, -1.58919019082E+001, +0.00000000000E+000
+4.95086375000E+006, -1.58984152408E+001, +0.00000000000E+000
+4.95087000000E+006, -1.59062128813E+001, +0.00000000000E+000
+4.95087625000E+006, -1.59129663188E+001, +0.00000000000E+000
+4.95088250000E+006, -1.59209903519E+001, +0.00000000000E+000
+4.95088875000E+006, -1.59278234300E+001, +0.00000000000E+000
+4.95089500000E+006, -1.59344811980E+001, +0.00000000000E+000
+4.95090125000E+006, -1.59426567205E+001, +0.00000000000E+000
+4.95090750000E+006, -1.59489166893E+001, +0.00000000000E+000
+4.95091375000E+006, -1.59554268788E+001, +0.00000000000E+000
+4.95092000000E+006, -1.59637710783E+001, +0.00000000000E+000
+4.95092625000E+006, -1.59718603547E+001, +0.00000000000E+000
+4.95093250000E+006, -1.59776652342E+001, +0.00000000000E+000
+4.95093875000E+006, -1.59855275407E+001, +0.00000000000E+000
+4.95094500000E+006, -1.59934023175E+001, +0.00000000000E+000
+4.95095125000E+006, -1.59998872900E+001, +0.00000000000E+000
+4.95095750000E+006, -1.60074987442E+001, +0.00000000000E+000
+4.95096375000E+006, -1.60157979196E+001, +0.00000000000E+000
+4.95097000000E+006, -1.60229377125E+001, +0.00000000000E+000
+4.95097625000E+006, -1.60304050625E+001, +0.00000000000E+000
+4.95098250000E+006, -1.60392493292E+001, +0.00000000000E+000
+4.95098875000E+006, -1.60478054013E+001, +0.00000000000E+000
+4.95099500000E+006, -1.60538692975E+001, +0.00000000000E+000
+4.95100125000E+006, -1.60626682121E+001, +0.00000000000E+000
+4.95100750000E+006, -1.60701460297E+001, +0.00000000000E+000
+4.95101375000E+006, -1.60766584480E+001, +0.00000000000E+000
+4.95102000000E+006, -1.60856131050E+001, +0.00000000000E+000
+4.95102625000E+006, -1.60928306899E+001, +0.00000000000E+000
+4.95103250000E+006, -1.60993413405E+001, +0.00000000000E+000
+4.95103875000E+006, -1.61071526046E+001, +0.00000000000E+000
+4.95104500000E+006, -1.61160837694E+001, +0.00000000000E+000
+4.95105125000E+006, -1.61234657648E+001, +0.00000000000E+000
+4.95105750000E+006, -1.61297587324E+001, +0.00000000000E+000
+4.95106375000E+006, -1.61394316740E+001, +0.00000000000E+000
+4.95107000000E+006, -1.61494097776E+001, +0.00000000000E+000
+4.95107625000E+006, -1.61575529179E+001, +0.00000000000E+000
+4.95108250000E+006, -1.61672776239E+001, +0.00000000000E+000
+4.95108875000E+006, -1.61765409596E+001, +0.00000000000E+000
+4.95109500000E+006, -1.61852463891E+001, +0.00000000000E+000
+4.95110125000E+006, -1.61942042868E+001, +0.00000000000E+000
+4.95110750000E+006, -1.62029122065E+001, +0.00000000000E+000
+4.95111375000E+006, -1.62091167683E+001, +0.00000000000E+000
+4.95112000000E+006, -1.62163320174E+001, +0.00000000000E+000
+4.95112625000E+006, -1.62240434273E+001, +0.00000000000E+000
+4.95113250000E+006, -1.62319846400E+001, +0.00000000000E+000
+4.95113875000E+006, -1.62386842626E+001, +0.00000000000E+000
+4.95114500000E+006, -1.62463102714E+001, +0.00000000000E+000
+4.95115125000E+006, -1.62569307227E+001, +0.00000000000E+000
+4.95115750000E+006, -1.62666711350E+001, +0.00000000000E+000
+4.95116375000E+006, -1.62765670421E+001, +0.00000000000E+000
+4.95117000000E+006, -1.62877520224E+001, +0.00000000000E+000
+4.95117625000E+006, -1.62952112903E+001, +0.00000000000E+000
+4.95118250000E+006, -1.63055470783E+001, +0.00000000000E+000
+4.95118875000E+006, -1.63162319903E+001, +0.00000000000E+000
+4.95119500000E+006, -1.63239021801E+001, +0.00000000000E+000
+4.95120125000E+006, -1.63313073235E+001, +0.00000000000E+000
+4.95120750000E+006, -1.63409898099E+001, +0.00000000000E+000
+4.95121375000E+006, -1.63487693809E+001, +0.00000000000E+000
+4.95122000000E+006, -1.63548646475E+001, +0.00000000000E+000
+4.95122625000E+006, -1.63643096690E+001, +0.00000000000E+000
+4.95123250000E+006, -1.63714676030E+001, +0.00000000000E+000
+4.95123875000E+006, -1.63786253705E+001, +0.00000000000E+000
+4.95124500000E+006, -1.63874951044E+001, +0.00000000000E+000
+4.95125125000E+006, -1.63986541979E+001, +0.00000000000E+000
+4.95125750000E+006, -1.64082131150E+001, +0.00000000000E+000
+4.95126375000E+006, -1.64178039789E+001, +0.00000000000E+000
+4.95127000000E+006, -1.64305549310E+001, +0.00000000000E+000
+4.95127625000E+006, -1.64410126163E+001, +0.00000000000E+000
+4.95128250000E+006, -1.64521328602E+001, +0.00000000000E+000
+4.95128875000E+006, -1.64624754875E+001, +0.00000000000E+000
+4.95129500000E+006, -1.64730395480E+001, +0.00000000000E+000
+4.95130125000E+006, -1.64812122080E+001, +0.00000000000E+000
+4.95130750000E+006, -1.64905981176E+001, +0.00000000000E+000
+4.95131375000E+006, -1.64992743814E+001, +0.00000000000E+000
+4.95132000000E+006, -1.65091078130E+001, +0.00000000000E+000
+4.95132625000E+006, -1.65174580517E+001, +0.00000000000E+000
+4.95133250000E+006, -1.65265149353E+001, +0.00000000000E+000
+4.95133875000E+006, -1.65344761259E+001, +0.00000000000E+000
+4.95134500000E+006, -1.65440081848E+001, +0.00000000000E+000
+4.95135125000E+006, -1.65540307098E+001, +0.00000000000E+000
+4.95135750000E+006, -1.65631263125E+001, +0.00000000000E+000
+4.95136375000E+006, -1.65753138279E+001, +0.00000000000E+000
+4.95137000000E+006, -1.65858393340E+001, +0.00000000000E+000
+4.95137625000E+006, -1.65967531388E+001, +0.00000000000E+000
+4.95138250000E+006, -1.66070990655E+001, +0.00000000000E+000
+4.95138875000E+006, -1.66185184088E+001, +0.00000000000E+000
+4.95139500000E+006, -1.66278299369E+001, +0.00000000000E+000
+4.95140125000E+006, -1.66410773369E+001, +0.00000000000E+000
+4.95140750000E+006, -1.66539991897E+001, +0.00000000000E+000
+4.95141375000E+006, -1.66632793603E+001, +0.00000000000E+000
+4.95142000000E+006, -1.66715227128E+001, +0.00000000000E+000
+4.95142625000E+006, -1.66847694817E+001, +0.00000000000E+000
+4.95143250000E+006, -1.66942817081E+001, +0.00000000000E+000
+4.95143875000E+006, -1.67045047031E+001, +0.00000000000E+000
+4.95144500000E+006, -1.67144244617E+001, +0.00000000000E+000
+4.95145125000E+006, -1.67253883909E+001, +0.00000000000E+000
+4.95145750000E+006, -1.67346598034E+001, +0.00000000000E+000
+4.95146375000E+006, -1.67448549083E+001, +0.00000000000E+000
+4.95147000000E+006, -1.67568007452E+001, +0.00000000000E+000
+4.95147625000E+006, -1.67679978937E+001, +0.00000000000E+000
+4.95148250000E+006, -1.67778114447E+001, +0.00000000000E+000
+4.95148875000E+006, -1.67884875559E+001, +0.00000000000E+000
+4.95149500000E+006, -1.68005411339E+001, +0.00000000000E+000
+4.95150125000E+006, -1.68112739465E+001, +0.00000000000E+000
+4.95150750000E+006, -1.68234375624E+001, +0.00000000000E+000
+4.95151375000E+006, -1.68355145493E+001, +0.00000000000E+000
+4.95152000000E+006, -1.68475798227E+001, +0.00000000000E+000
+4.95152625000E+006, -1.68586922181E+001, +0.00000000000E+000
+4.95153250000E+006, -1.68696102208E+001, +0.00000000000E+000
+4.95153875000E+006, -1.68806280333E+001, +0.00000000000E+000
+4.95154500000E+006, -1.68917116634E+001, +0.00000000000E+000
+4.95155125000E+006, -1.69026469407E+001, +0.00000000000E+000
+4.95155750000E+006, -1.69140942518E+001, +0.00000000000E+000
+4.95156375000E+006, -1.69271656532E+001, +0.00000000000E+000
+4.95157000000E+006, -1.69386218865E+001, +0.00000000000E+000
+4.95157625000E+006, -1.69506725542E+001, +0.00000000000E+000
+4.95158250000E+006, -1.69632269072E+001, +0.00000000000E+000
+4.95158875000E+006, -1.69756401665E+001, +0.00000000000E+000
+4.95159500000E+006, -1.69880869741E+001, +0.00000000000E+000
+4.95160125000E+006, -1.70001573559E+001, +0.00000000000E+000
+4.95160750000E+006, -1.70139709665E+001, +0.00000000000E+000
+4.95161375000E+006, -1.70259976755E+001, +0.00000000000E+000
+4.95162000000E+006, -1.70383329921E+001, +0.00000000000E+000
+4.95162625000E+006, -1.70496659423E+001, +0.00000000000E+000
+4.95163250000E+006, -1.70617584656E+001, +0.00000000000E+000
+4.95163875000E+006, -1.70751276450E+001, +0.00000000000E+000
+4.95164500000E+006, -1.70877072587E+001, +0.00000000000E+000
+4.95165125000E+006, -1.70999830153E+001, +0.00000000000E+000
+4.95165750000E+006, -1.71123909767E+001, +0.00000000000E+000
+4.95166375000E+006, -1.71256505129E+001, +0.00000000000E+000
+4.95167000000E+006, -1.71376222426E+001, +0.00000000000E+000
+4.95167625000E+006, -1.71506397480E+001, +0.00000000000E+000
+4.95168250000E+006, -1.71638228945E+001, +0.00000000000E+000
+4.95168875000E+006, -1.71774092468E+001, +0.00000000000E+000
+4.95169500000E+006, -1.71912908427E+001, +0.00000000000E+000
+4.95170125000E+006, -1.72051432069E+001, +0.00000000000E+000
+4.95170750000E+006, -1.72177947055E+001, +0.00000000000E+000
+4.95171375000E+006, -1.72304266686E+001, +0.00000000000E+000
+4.95172000000E+006, -1.72452060519E+001, +0.00000000000E+000
+4.95172625000E+006, -1.72581892067E+001, +0.00000000000E+000
+4.95173250000E+006, -1.72718268998E+001, +0.00000000000E+000
+4.95173875000E+006, -1.72853831394E+001, +0.00000000000E+000
+4.95174500000E+006, -1.73002516744E+001, +0.00000000000E+000
+4.95175125000E+006, -1.73120530666E+001, +0.00000000000E+000
+4.95175750000E+006, -1.73253067290E+001, +0.00000000000E+000
+4.95176375000E+006, -1.73409111633E+001, +0.00000000000E+000
+4.95177000000E+006, -1.73534790001E+001, +0.00000000000E+000
+4.95177625000E+006, -1.73672172468E+001, +0.00000000000E+000
+4.95178250000E+006, -1.73827314975E+001, +0.00000000000E+000
+4.95178875000E+006, -1.73961844515E+001, +0.00000000000E+000
+4.95179500000E+006, -1.74098439016E+001, +0.00000000000E+000
+4.95180125000E+006, -1.74251616644E+001, +0.00000000000E+000
+4.95180750000E+006, -1.74413056230E+001, +0.00000000000E+000
+4.95181375000E+006, -1.74544646418E+001, +0.00000000000E+000
+4.95182000000E+006, -1.74698322016E+001, +0.00000000000E+000
+4.95182625000E+006, -1.74863331877E+001, +0.00000000000E+000
+4.95183250000E+006, -1.75007908154E+001, +0.00000000000E+000
+4.95183875000E+006, -1.75151030276E+001, +0.00000000000E+000
+4.95184500000E+006, -1.75317871264E+001, +0.00000000000E+000
+4.95185125000E+006, -1.75463644477E+001, +0.00000000000E+000
+4.95185750000E+006, -1.75608862969E+001, +0.00000000000E+000
+4.95186375000E+006, -1.75787746774E+001, +0.00000000000E+000
+4.95187000000E+006, -1.75923235808E+001, +0.00000000000E+000
+4.95187625000E+006, -1.76077165138E+001, +0.00000000000E+000
+4.95188250000E+006, -1.76224424510E+001, +0.00000000000E+000
+4.95188875000E+006, -1.76393370792E+001, +0.00000000000E+000
+4.95189500000E+006, -1.76539201990E+001, +0.00000000000E+000
+4.95190125000E+006, -1.76702411802E+001, +0.00000000000E+000
+4.95190750000E+006, -1.76868239529E+001, +0.00000000000E+000
+4.95191375000E+006, -1.77019997041E+001, +0.00000000000E+000
+4.95192000000E+006, -1.77189254551E+001, +0.00000000000E+000
+4.95192625000E+006, -1.77363052851E+001, +0.00000000000E+000
+4.95193250000E+006, -1.77528824111E+001, +0.00000000000E+000
+4.95193875000E+006, -1.77682039429E+001, +0.00000000000E+000
+4.95194500000E+006, -1.77865391949E+001, +0.00000000000E+000
+4.95195125000E+006, -1.78037612498E+001, +0.00000000000E+000
+4.95195750000E+006, -1.78190876574E+001, +0.00000000000E+000
+4.95196375000E+006, -1.78375508524E+001, +0.00000000000E+000
+4.95197000000E+006, -1.78543805900E+001, +0.00000000000E+000
+4.95197625000E+006, -1.78703533359E+001, +0.00000000000E+000
+4.95198250000E+006, -1.78887577496E+001, +0.00000000000E+000
+4.95198875000E+006, -1.79069639548E+001, +0.00000000000E+000
+4.95199500000E+006, -1.79220247453E+001, +0.00000000000E+000
+4.95200125000E+006, -1.79403290390E+001, +0.00000000000E+000
+4.95200750000E+006, -1.79599879673E+001, +0.00000000000E+000
+4.95201375000E+006, -1.79762351653E+001, +0.00000000000E+000
+4.95202000000E+006, -1.79935726425E+001, +0.00000000000E+000
+4.95202625000E+006, -1.80127681231E+001, +0.00000000000E+000
+4.95203250000E+006, -1.80327060455E+001, +0.00000000000E+000
+4.95203875000E+006, -1.80482544517E+001, +0.00000000000E+000
+4.95204500000E+006, -1.80688975372E+001, +0.00000000000E+000
+4.95205125000E+006, -1.80883412006E+001, +0.00000000000E+000
+4.95205750000E+006, -1.81054276980E+001, +0.00000000000E+000
+4.95206375000E+006, -1.81250358361E+001, +0.00000000000E+000
+4.95207000000E+006, -1.81456451857E+001, +0.00000000000E+000
+4.95207625000E+006, -1.81633064965E+001, +0.00000000000E+000
+4.95208250000E+006, -1.81814985119E+001, +0.00000000000E+000
+4.95208875000E+006, -1.82022868527E+001, +0.00000000000E+000
+4.95209500000E+006, -1.82204306936E+001, +0.00000000000E+000
+4.95210125000E+006, -1.82389743767E+001, +0.00000000000E+000
+4.95210750000E+006, -1.82600392459E+001, +0.00000000000E+000
+4.95211375000E+006, -1.82795389259E+001, +0.00000000000E+000
+4.95212000000E+006, -1.82981242860E+001, +0.00000000000E+000
+4.95212625000E+006, -1.83207978446E+001, +0.00000000000E+000
+4.95213250000E+006, -1.83403925605E+001, +0.00000000000E+000
+4.95213875000E+006, -1.83607811188E+001, +0.00000000000E+000
+4.95214500000E+006, -1.83825981484E+001, +0.00000000000E+000
+4.95215125000E+006, -1.84046794326E+001, +0.00000000000E+000
+4.95215750000E+006, -1.84231094542E+001, +0.00000000000E+000
+4.95216375000E+006, -1.84457258194E+001, +0.00000000000E+000
+4.95217000000E+006, -1.84678902167E+001, +0.00000000000E+000
+4.95217625000E+006, -1.84862089664E+001, +0.00000000000E+000
+4.95218250000E+006, -1.85085448668E+001, +0.00000000000E+000
+4.95218875000E+006, -1.85316495257E+001, +0.00000000000E+000
+4.95219500000E+006, -1.85516902209E+001, +0.00000000000E+000
+4.95220125000E+006, -1.85720975165E+001, +0.00000000000E+000
+4.95220750000E+006, -1.85963714118E+001, +0.00000000000E+000
+4.95221375000E+006, -1.86197241818E+001, +0.00000000000E+000
+4.95222000000E+006, -1.86406740353E+001, +0.00000000000E+000
+4.95222625000E+006, -1.86643950489E+001, +0.00000000000E+000
+4.95223250000E+006, -1.86880375320E+001, +0.00000000000E+000
+4.95223875000E+006, -1.87096240999E+001, +0.00000000000E+000
+4.95224500000E+006, -1.87333128216E+001, +0.00000000000E+000
+4.95225125000E+006, -1.87567887148E+001, +0.00000000000E+000
+4.95225750000E+006, -1.87800024102E+001, +0.00000000000E+000
+4.95226375000E+006, -1.88030288813E+001, +0.00000000000E+000
+4.95227000000E+006, -1.88289102947E+001, +0.00000000000E+000
+4.95227625000E+006, -1.88508676882E+001, +0.00000000000E+000
+4.95228250000E+006, -1.88743015460E+001, +0.00000000000E+000
+4.95228875000E+006, -1.88997224384E+001, +0.00000000000E+000
+4.95229500000E+006, -1.89249683881E+001, +0.00000000000E+000
+4.95230125000E+006, -1.89473656731E+001, +0.00000000000E+000
+4.95230750000E+006, -1.89733782412E+001, +0.00000000000E+000
+4.95231375000E+006, -1.90006302416E+001, +0.00000000000E+000
+4.95232000000E+006, -1.90247924921E+001, +0.00000000000E+000
+4.95232625000E+006, -1.90498525828E+001, +0.00000000000E+000
+4.95233250000E+006, -1.90784848202E+001, +0.00000000000E+000
+4.95233875000E+006, -1.91021240149E+001, +0.00000000000E+000
+4.95234500000E+006, -1.91259601247E+001, +0.00000000000E+000
+4.95235125000E+006, -1.91539744817E+001, +0.00000000000E+000
+4.95235750000E+006, -1.91791737558E+001, +0.00000000000E+000
+4.95236375000E+006, -1.92070558405E+001, +0.00000000000E+000
