"# Channel 1"
"# Trace 1"
Frequency, Formatted Data, Formatted Data
+4.95404500000E+006, +3.83020746051E-001, +0.00000000000E+000
+4.95405000000E+006, +3.83564944128E-001, +0.00000000000E+000
+4.95405500000E+006, +3.83413918104E-001, +0.00000000000E+000
+4.95406000000E+006, +3.83226187738E-001, +0.00000000000E+000
+4.95406500000E+006, +3.83088167582E-001, +0.00000000000E+000
+4.95407000000E+006, +3.82945976553E-001, +0.00000000000E+000
+4.95407500000E+006, +3.82792698412E-001, +0.00000000000E+000
+4.95408000000E+006, +3.82663089058E-001, +0.00000000000E+000
+4.95408500000E+006, +3.82509467533E-001, +0.00000000000E+000
+4.95409000000E+006, +3.82340791323E-001, +0.00000000000E+000
+4.95409500000E+006, +3.82224284784E-001, +0.00000000000E+000
+4.95410000000E+006, +3.82029997218E-001, +0.00000000000E+000
+4.95410500000E+006, +3.81829053983E-001, +0.00000000000E+000
+4.95411000000E+006, +3.81606312338E-001, +0.00000000000E+000
+4.95411500000E+006, +3.81411567001E-001, +0.00000000000E+000
+4.95412000000E+006, +3.81317951804E-001, +0.00000000000E+000
+4.95412500000E+006, +3.81169605994E-001, +0.00000000000E+000
+4.95413000000E+006, +3.80926373912E-001, +0.00000000000E+000
+4.95413500000E+006, +3.80736593093E-001, +0.00000000000E+000
+4.95414000000E+006, +3.80483485598E-001, +0.00000000000E+000
+4.95414500000E+006, +3.80264771144E-001, +0.00000000000E+000
+4.95415000000E+006, +3.80108965939E-001, +0.00000000000E+000
+4.95415500000E+006, +3.79833546143E-001, +0.00000000000E+000
+4.95416000000E+006, +3.79608142029E-001, +0.00000000000E+000
+4.95416500000E+006, +3.79406303158E-001, +0.00000000000E+000
+4.95417000000E+006, +3.79170931309E-001, +0.00000000000E+000
+4.95417500000E+006, +3.78908687322E-001, +0.00000000000E+000
+4.95418000000E+006, +3.78620626912E-001, +0.00000000000E+000
+4.95418500000E+006, +3.78394749749E-001, +0.00000000000E+000
+4.95419000000E+006, +3.78117619878E-001, +0.00000000000E+000
+4.95419500000E+006, +3.77899021728E-001, +0.00000000000E+000
+4.95420000000E+006, +3.77617227512E-001, +0.00000000000E+000
+4.95420500000E+006, +3.77283073611E-001, +0.00000000000E+000
+4.95421000000E+006, +3.77038682429E-001, +0.00000000000E+000
+4.95421500000E+006, +3.76722908954E-001, +0.00000000000E+000
+4.95422000000E+006, +3.76407526347E-001, +0.00000000000E+000
+4.95422500000E+006, +3.76105444765E-001, +0.00000000000E+000
+4.95423000000E+006, +3.75791626647E-001, +0.00000000000E+000
+4.95423500000E+006, +3.75412122272E-001, +0.00000000000E+000
+4.95424000000E+006, +3.75039269119E-001, +0.00000000000E+000
+4.95424500000E+006, +3.74678051452E-001, +0.00000000000E+000
+4.95425000000E+006, +3.74254039799E-001, +0.00000000000E+000
+4.95425500000E+006, +3.73860665666E-001, +0.00000000000E+000
+4.95426000000E+006, +3.73476512061E-001, +0.00000000000E+000
+4.95426500000E+006, +3.73148306142E-001, +0.00000000000E+000
+4.95427000000E+006, +3.72703398859E-001, +0.00000000000E+000
+4.95427500000E+006, +3.72300252048E-001, +0.00000000000E+000
+4.95428000000E+006, +3.71863195045E-001, +0.00000000000E+000
+4.95428500000E+006, +3.71386608253E-001, +0.00000000000E+000
+4.95429000000E+006, +3.70890968410E-001, +0.00000000000E+000
+4.95429500000E+006, +3.70424249011E-001, +0.00000000000E+000
+4.95430000000E+006, +3.69920390338E-001, +0.00000000000E+000
+4.95430500000E+006, +3.69361595949E-001, +0.00000000000E+000
+4.95431000000E+006, +3.68818588089E-001, +0.00000000000E+000
+4.95431500000E+006, +3.68242167367E-001, +0.00000000000E+000
+4.95432000000E+006, +3.67649711783E-001, +0.00000000000E+000
+4.95432500000E+006, +3.67059418977E-001, +0.00000000000E+000
+4.95433000000E+006, +3.66416320659E-001, +0.00000000000E+000
+4.95433500000E+006, +3.65778001821E-001, +0.00000000000E+000
+4.95434000000E+006, +3.65135797220E-001, +0.00000000000E+000
+4.95434500000E+006, +3.64449782714E-001, +0.00000000000E+000
+4.95435000000E+006, +3.63732141121E-001, +0.00000000000E+000
+4.95435500000E+006, +3.62970408169E-001, +0.00000000000E+000
+4.95436000000E+006, +3.62261572539E-001, +0.00000000000E+000
+4.95436500000E+006, +3.61513129399E-001, +0.00000000000E+000
+4.95437000000E+006, +3.60734074212E-001, +0.00000000000E+000
+4.95437500000E+006, +3.59938157407E-001, +0.00000000000E+000
+4.95438000000E+006, +3.59100702148E-001, +0.00000000000E+000
+4.95438500000E+006, +3.58267640269E-001, +0.00000000000E+000
+4.95439000000E+006, +3.57468787909E-001, +0.00000000000E+000
+4.95439500000E+006, +3.56654227349E-001, +0.00000000000E+000
+4.95440000000E+006, +3.55847280367E-001, +0.00000000000E+000
+4.95440500000E+006, +3.55055160003E-001, +0.00000000000E+000
+4.95441000000E+006, +3.54258384987E-001, +0.00000000000E+000
+4.95441500000E+006, +3.53527968229E-001, +0.00000000000E+000
+4.95442000000E+006, +3.52923289140E-001, +0.00000000000E+000
+4.95442500000E+006, +3.52475923686E-001, +0.00000000000E+000
+4.95443000000E+006, +3.52216203865E-001, +0.00000000000E+000
+4.95443500000E+006, +3.52167361492E-001, +0.00000000000E+000
+4.95444000000E+006, +3.52380842687E-001, +0.00000000000E+000
+4.95444500000E+006, +3.52946967333E-001, +0.00000000000E+000
+4.95445000000E+006, +3.53930998082E-001, +0.00000000000E+000
+4.95445500000E+006, +3.55437563423E-001, +0.00000000000E+000
+4.95446000000E+006, +3.57510966991E-001, +0.00000000000E+000
+4.95446500000E+006, +3.60331017601E-001, +0.00000000000E+000
+4.95447000000E+006, +3.63870891358E-001, +0.00000000000E+000
+4.95447500000E+006, +3.68247406707E-001, +0.00000000000E+000
+4.95448000000E+006, +3.73500886691E-001, +0.00000000000E+000
+4.95448500000E+006, +3.79573034992E-001, +0.00000000000E+000
+4.95449000000E+006, +3.86430011522E-001, +0.00000000000E+000
+4.95449500000E+006, +3.93869240344E-001, +0.00000000000E+000
+4.95450000000E+006, +4.01747692356E-001, +0.00000000000E+000
+4.95450500000E+006, +4.09808824031E-001, +0.00000000000E+000
+4.95451000000E+006, +4.17745127436E-001, +0.00000000000E+000
+4.95451500000E+006, +4.25303063589E-001, +0.00000000000E+000
+4.95452000000E+006, +4.32169277182E-001, +0.00000000000E+000
+4.95452500000E+006, +4.38149982566E-001, +0.00000000000E+000
+4.95453000000E+006, +4.43083191219E-001, +0.00000000000E+000
+4.95453500000E+006, +4.46922415627E-001, +0.00000000000E+000
+4.95454000000E+006, +4.49720775844E-001, +0.00000000000E+000
+4.95454500000E+006, +4.51562806914E-001, +0.00000000000E+000
+4.95455000000E+006, +4.52577974874E-001, +0.00000000000E+000
+4.95455500000E+006, +4.52941889541E-001, +0.00000000000E+000
+4.95456000000E+006, +4.52761726124E-001, +0.00000000000E+000
+4.95456500000E+006, +4.52169748251E-001, +0.00000000000E+000
+4.95457000000E+006, +4.51307377786E-001, +0.00000000000E+000
+4.95457500000E+006, +4.50249593045E-001, +0.00000000000E+000
+4.95458000000E+006, +4.49009321776E-001, +0.00000000000E+000
+4.95458500000E+006, +4.47678360196E-001, +0.00000000000E+000
+4.95459000000E+006, +4.46309884566E-001, +0.00000000000E+000
+4.95459500000E+006, +4.44988557330E-001, +0.00000000000E+000
+4.95460000000E+006, +4.43626398045E-001, +0.00000000000E+000
+4.95460500000E+006, +4.42252296897E-001, +0.00000000000E+000
+4.95461000000E+006, +4.40886038346E-001, +0.00000000000E+000
+4.95461500000E+006, +4.39584654746E-001, +0.00000000000E+000
+4.95462000000E+006, +4.38381013924E-001, +0.00000000000E+000
+4.95462500000E+006, +4.37152644638E-001, +0.00000000000E+000
+4.95463000000E+006, +4.36002822052E-001, +0.00000000000E+000
+4.95463500000E+006, +4.34939954939E-001, +0.00000000000E+000
+4.95464000000E+006, +4.33854679053E-001, +0.00000000000E+000
+4.95464500000E+006, +4.32856549283E-001, +0.00000000000E+000
+4.95465000000E+006, +4.31866294675E-001, +0.00000000000E+000
+4.95465500000E+006, +4.30984219103E-001, +0.00000000000E+000
+4.95466000000E+006, +4.30092515665E-001, +0.00000000000E+000
+4.95466500000E+006, +4.29276537693E-001, +0.00000000000E+000
+4.95467000000E+006, +4.28461291921E-001, +0.00000000000E+000
+4.95467500000E+006, +4.27728612461E-001, +0.00000000000E+000
+4.95468000000E+006, +4.27034334676E-001, +0.00000000000E+000
+4.95468500000E+006, +4.26287578047E-001, +0.00000000000E+000
+4.95469000000E+006, +4.25629335437E-001, +0.00000000000E+000
+4.95469500000E+006, +4.24987258911E-001, +0.00000000000E+000
+4.95470000000E+006, +4.24340578719E-001, +0.00000000000E+000
+4.95470500000E+006, +4.23709099781E-001, +0.00000000000E+000
+4.95471000000E+006, +4.23140739563E-001, +0.00000000000E+000
+4.95471500000E+006, +4.22637102308E-001, +0.00000000000E+000
+4.95472000000E+006, +4.22058448861E-001, +0.00000000000E+000
+4.95472500000E+006, +4.21539418944E-001, +0.00000000000E+000
+4.95473000000E+006, +4.21061860810E-001, +0.00000000000E+000
+4.95473500000E+006, +4.20583221964E-001, +0.00000000000E+000
+4.95474000000E+006, +4.19989716760E-001, +0.00000000000E+000
+4.95474500000E+006, +4.19503063261E-001, +0.00000000000E+000
+4.95475000000E+006, +4.19154362634E-001, +0.00000000000E+000
+4.95475500000E+006, +4.18690689126E-001, +0.00000000000E+000
+4.95476000000E+006, +4.18274390559E-001, +0.00000000000E+000
+4.95476500000E+006, +4.17933391471E-001, +0.00000000000E+000
+4.95477000000E+006, +4.17591221878E-001, +0.00000000000E+000
+4.95477500000E+006, +4.17240216793E-001, +0.00000000000E+000
+4.95478000000E+006, +4.16921774547E-001, +0.00000000000E+000
+4.95478500000E+006, +4.16555578062E-001, +0.00000000000E+000
+4.95479000000E+006, +4.16274424401E-001, +0.00000000000E+000
+4.95479500000E+006, +4.15970163255E-001, +0.00000000000E+000
+4.95480000000E+006, +4.15675231408E-001, +0.00000000000E+000
+4.95480500000E+006, +4.15377837988E-001, +0.00000000000E+000
+4.95481000000E+006, +4.15064665722E-001, +0.00000000000E+000
+4.95481500000E+006, +4.14807010428E-001, +0.00000000000E+000
+4.95482000000E+006, +4.14472478060E-001, +0.00000000000E+000
+4.95482500000E+006, +4.14226102503E-001, +0.00000000000E+000
+4.95483000000E+006, +4.14021389891E-001, +0.00000000000E+000
+4.95483500000E+006, +4.13774140424E-001, +0.00000000000E+000
+4.95484000000E+006, +4.13514374374E-001, +0.00000000000E+000
+4.95484500000E+006, +4.13309002512E-001, +0.00000000000E+000
+4.95485000000E+006, +4.13068018888E-001, +0.00000000000E+000
+4.95485500000E+006, +4.12857772727E-001, +0.00000000000E+000
+4.95486000000E+006, +4.12619355168E-001, +0.00000000000E+000
+4.95486500000E+006, +4.12413763626E-001, +0.00000000000E+000
+4.95487000000E+006, +4.12211562797E-001, +0.00000000000E+000
+4.95487500000E+006, +4.12013997817E-001, +0.00000000000E+000
+4.95488000000E+006, +4.11824156118E-001, +0.00000000000E+000
+4.95488500000E+006, +4.11650173008E-001, +0.00000000000E+000
+4.95489000000E+006, +4.11477196280E-001, +0.00000000000E+000
+4.95489500000E+006, +4.11231126981E-001, +0.00000000000E+000
+4.95490000000E+006, +4.11030722981E-001, +0.00000000000E+000
+4.95490500000E+006, +4.10870825044E-001, +0.00000000000E+000
+4.95491000000E+006, +4.10714547576E-001, +0.00000000000E+000
+4.95491500000E+006, +4.10568736099E-001, +0.00000000000E+000
+4.95492000000E+006, +4.10462267933E-001, +0.00000000000E+000
+4.95492500000E+006, +4.10244307819E-001, +0.00000000000E+000
+4.95493000000E+006, +4.10078866989E-001, +0.00000000000E+000
+4.95493500000E+006, +4.09967767977E-001, +0.00000000000E+000
+4.95494000000E+006, +4.09874941534E-001, +0.00000000000E+000
+4.95494500000E+006, +4.09759547678E-001, +0.00000000000E+000
+4.95495000000E+006, +4.09588355270E-001, +0.00000000000E+000
+4.95495500000E+006, +4.09437053918E-001, +0.00000000000E+000
+4.95496000000E+006, +4.09319925370E-001, +0.00000000000E+000
+4.95496500000E+006, +4.09152762468E-001, +0.00000000000E+000
+4.95497000000E+006, +4.08991892671E-001, +0.00000000000E+000
+4.95497500000E+006, +4.08873237456E-001, +0.00000000000E+000
+4.95498000000E+006, +4.08748554573E-001, +0.00000000000E+000
+4.95498500000E+006, +4.08639337428E-001, +0.00000000000E+000
+4.95499000000E+006, +4.08519847939E-001, +0.00000000000E+000
+4.95499500000E+006, +4.08388389470E-001, +0.00000000000E+000
+4.95500000000E+006, +4.08243156590E-001, +0.00000000000E+000
+4.95500500000E+006, +4.08137897428E-001, +0.00000000000E+000
+4.95501000000E+006, +4.08103603605E-001, +0.00000000000E+000
+4.95501500000E+006, +4.07973527092E-001, +0.00000000000E+000
+4.95502000000E+006, +4.07878250694E-001, +0.00000000000E+000
+4.95502500000E+006, +4.07796910662E-001, +0.00000000000E+000
+4.95503000000E+006, +4.07680674473E-001, +0.00000000000E+000
+4.95503500000E+006, +4.07569260314E-001, +0.00000000000E+000
+4.95504000000E+006, +4.07505120909E-001, +0.00000000000E+000
+4.95504500000E+006, +4.07396540283E-001, +0.00000000000E+000
