"# Channel 1"
"# Trace 2"
Frequency, Formatted Data, Formatted Data
+4.95429500000E+006, -5.33322595567E+001, +0.00000000000E+000
+4.95429531250E+006, -5.28869137346E+001, +0.00000000000E+000
+4.95429562500E+006, -5.29380462259E+001, +0.00000000000E+000
+4.95429593750E+006, -5.29939481881E+001, +0.00000000000E+000
+4.95429625000E+006, -5.30508917038E+001, +0.00000000000E+000
+4.95429656250E+006, -5.31124231579E+001, +0.00000000000E+000
+4.95429687500E+006, -5.31768672768E+001, +0.00000000000E+000
+4.95429718750E+006, -5.32347821869E+001, +0.00000000000E+000
+4.95429750000E+006, -5.32859775190E+001, +0.00000000000E+000
+4.95429781250E+006, -5.33395095630E+001, +0.00000000000E+000
+4.95429812500E+006, -5.34013682533E+001, +0.00000000000E+000
+4.95429843750E+006, -5.34611749185E+001, +0.00000000000E+000
+4.95429875000E+006, -5.35148944691E+001, +0.00000000000E+000
+4.95429906250E+006, -5.35693120201E+001, +0.00000000000E+000
+4.95429937500E+006, -5.36270031498E+001, +0.00000000000E+000
+4.95429968750E+006, -5.36897217046E+001, +0.00000000000E+000
+4.95430000000E+006, -5.37483669982E+001, +0.00000000000E+000
+4.95430031250E+006, -5.37987736297E+001, +0.00000000000E+000
+4.95430062500E+006, -5.38574768415E+001, +0.00000000000E+000
+4.95430093750E+006, -5.39188911859E+001, +0.00000000000E+000
+4.95430125000E+006, -5.39811267935E+001, +0.00000000000E+000
+4.95430156250E+006, -5.40388982678E+001, +0.00000000000E+000
+4.95430187500E+006, -5.40951116683E+001, +0.00000000000E+000
+4.95430218750E+006, -5.41508220506E+001, +0.00000000000E+000
+4.95430250000E+006, -5.42108650115E+001, +0.00000000000E+000
+4.95430281250E+006, -5.42748082233E+001, +0.00000000000E+000
+4.95430312500E+006, -5.43377487867E+001, +0.00000000000E+000
+4.95430343750E+006, -5.43940943607E+001, +0.00000000000E+000
+4.95430375000E+006, -5.44527761642E+001, +0.00000000000E+000
+4.95430406250E+006, -5.45117228693E+001, +0.00000000000E+000
+4.95430437500E+006, -5.45705202748E+001, +0.00000000000E+000
+4.95430468750E+006, -5.46300592131E+001, +0.00000000000E+000
+4.95430500000E+006, -5.46899016049E+001, +0.00000000000E+000
+4.95430531250E+006, -5.47508010598E+001, +0.00000000000E+000
+4.95430562500E+006, -5.48117684049E+001, +0.00000000000E+000
+4.95430593750E+006, -5.48766407920E+001, +0.00000000000E+000
+4.95430625000E+006, -5.49362582525E+001, +0.00000000000E+000
+4.95430656250E+006, -5.49945446192E+001, +0.00000000000E+000
+4.95430687500E+006, -5.50562878075E+001, +0.00000000000E+000
+4.95430718750E+006, -5.51208746193E+001, +0.00000000000E+000
+4.95430750000E+006, -5.51861567860E+001, +0.00000000000E+000
+4.95430781250E+006, -5.52489029789E+001, +0.00000000000E+000
+4.95430812500E+006, -5.53120452756E+001, +0.00000000000E+000
+4.95430843750E+006, -5.53689886166E+001, +0.00000000000E+000
+4.95430875000E+006, -5.54293539408E+001, +0.00000000000E+000
+4.95430906250E+006, -5.55037360869E+001, +0.00000000000E+000
+4.95430937500E+006, -5.55712058183E+001, +0.00000000000E+000
+4.95430968750E+006, -5.56303463742E+001, +0.00000000000E+000
+4.95431000000E+006, -5.56905932930E+001, +0.00000000000E+000
+4.95431031250E+006, -5.57522477878E+001, +0.00000000000E+000
+4.95431062500E+006, -5.58218629285E+001, +0.00000000000E+000
+4.95431093750E+006, -5.58885009834E+001, +0.00000000000E+000
+4.95431125000E+006, -5.59496864590E+001, +0.00000000000E+000
+4.95431156250E+006, -5.60039213513E+001, +0.00000000000E+000
+4.95431187500E+006, -5.60713776143E+001, +0.00000000000E+000
+4.95431218750E+006, -5.61413571591E+001, +0.00000000000E+000
+4.95431250000E+006, -5.62074503798E+001, +0.00000000000E+000
+4.95431281250E+006, -5.62684151875E+001, +0.00000000000E+000
+4.95431312500E+006, -5.63332596785E+001, +0.00000000000E+000
+4.95431343750E+006, -5.63959717193E+001, +0.00000000000E+000
+4.95431375000E+006, -5.64624689725E+001, +0.00000000000E+000
+4.95431406250E+006, -5.65336528409E+001, +0.00000000000E+000
+4.95431437500E+006, -5.65965904641E+001, +0.00000000000E+000
+4.95431468750E+006, -5.66598432909E+001, +0.00000000000E+000
+4.95431500000E+006, -5.67247722772E+001, +0.00000000000E+000
+4.95431531250E+006, -5.67944050585E+001, +0.00000000000E+000
+4.95431562500E+006, -5.68616550474E+001, +0.00000000000E+000
+4.95431593750E+006, -5.69317619765E+001, +0.00000000000E+000
+4.95431625000E+006, -5.69982459361E+001, +0.00000000000E+000
+4.95431656250E+006, -5.70586869183E+001, +0.00000000000E+000
+4.95431687500E+006, -5.71293788104E+001, +0.00000000000E+000
+4.95431718750E+006, -5.72036162512E+001, +0.00000000000E+000
+4.95431750000E+006, -5.72719608877E+001, +0.00000000000E+000
+4.95431781250E+006, -5.73359266576E+001, +0.00000000000E+000
+4.95431812500E+006, -5.73999527529E+001, +0.00000000000E+000
+4.95431843750E+006, -5.74701212725E+001, +0.00000000000E+000
+4.95431875000E+006, -5.75466779947E+001, +0.00000000000E+000
+4.95431906250E+006, -5.76314552002E+001, +0.00000000000E+000
+4.95431937500E+006, -5.76989501581E+001, +0.00000000000E+000
+4.95431968750E+006, -5.77545447201E+001, +0.00000000000E+000
+4.95432000000E+006, -5.78211697456E+001, +0.00000000000E+000
+4.95432031250E+006, -5.79022204535E+001, +0.00000000000E+000
+4.95432062500E+006, -5.79795704424E+001, +0.00000000000E+000
+4.95432093750E+006, -5.80417129802E+001, +0.00000000000E+000
+4.95432125000E+006, -5.81021034890E+001, +0.00000000000E+000
+4.95432156250E+006, -5.81710129667E+001, +0.00000000000E+000
+4.95432187500E+006, -5.82517343959E+001, +0.00000000000E+000
+4.95432218750E+006, -5.83332719927E+001, +0.00000000000E+000
+4.95432250000E+006, -5.83996615795E+001, +0.00000000000E+000
+4.95432281250E+006, -5.84611166585E+001, +0.00000000000E+000
+4.95432312500E+006, -5.85329313757E+001, +0.00000000000E+000
+4.95432343750E+006, -5.86036503570E+001, +0.00000000000E+000
+4.95432375000E+006, -5.86731857746E+001, +0.00000000000E+000
+4.95432406250E+006, -5.87505283111E+001, +0.00000000000E+000
+4.95432437500E+006, -5.88315030954E+001, +0.00000000000E+000
+4.95432468750E+006, -5.89007971744E+001, +0.00000000000E+000
+4.95432500000E+006, -5.89676009194E+001, +0.00000000000E+000
+4.95432531250E+006, -5.90407207004E+001, +0.00000000000E+000
+4.95432562500E+006, -5.91234736361E+001, +0.00000000000E+000
+4.95432593750E+006, -5.92022332499E+001, +0.00000000000E+000
+4.95432625000E+006, -5.92696402963E+001, +0.00000000000E+000
+4.95432656250E+006, -5.93329648089E+001, +0.00000000000E+000
+4.95432687500E+006, -5.94114602110E+001, +0.00000000000E+000
+4.95432718750E+006, -5.94993905844E+001, +0.00000000000E+000
+4.95432750000E+006, -5.95765646050E+001, +0.00000000000E+000
+4.95432781250E+006, -5.96442184293E+001, +0.00000000000E+000
+4.95432812500E+006, -5.97142636722E+001, +0.00000000000E+000
+4.95432843750E+006, -5.97947931272E+001, +0.00000000000E+000
+4.95432875000E+006, -5.98790469973E+001, +0.00000000000E+000
+4.95432906250E+006, -5.99508777046E+001, +0.00000000000E+000
+4.95432937500E+006, -6.00179279464E+001, +0.00000000000E+000
+4.95432968750E+006, -6.00891898280E+001, +0.00000000000E+000
+4.95433000000E+006, -6.01783765563E+001, +0.00000000000E+000
+4.95433031250E+006, -6.02625095122E+001, +0.00000000000E+000
+4.95433062500E+006, -6.03336085305E+001, +0.00000000000E+000
+4.95433093750E+006, -6.04070137935E+001, +0.00000000000E+000
+4.95433125000E+006, -6.04937253704E+001, +0.00000000000E+000
+4.95433156250E+006, -6.05964468028E+001, +0.00000000000E+000
+4.95433187500E+006, -6.06700574757E+001, +0.00000000000E+000
+4.95433218750E+006, -6.07285352305E+001, +0.00000000000E+000
+4.95433250000E+006, -6.08151554130E+001, +0.00000000000E+000
+4.95433281250E+006, -6.09168256579E+001, +0.00000000000E+000
+4.95433312500E+006, -6.10067057153E+001, +0.00000000000E+000
+4.95433343750E+006, -6.10651563638E+001, +0.00000000000E+000
+4.95433375000E+006, -6.11283313966E+001, +0.00000000000E+000
+4.95433406250E+006, -6.12097234972E+001, +0.00000000000E+000
+4.95433437500E+006, -6.13006288889E+001, +0.00000000000E+000
+4.95433468750E+006, -6.13941412896E+001, +0.00000000000E+000
+4.95433500000E+006, -6.14707569257E+001, +0.00000000000E+000
+4.95433531250E+006, -6.15472092785E+001, +0.00000000000E+000
+4.95433562500E+006, -6.16128741925E+001, +0.00000000000E+000
+4.95433593750E+006, -6.16931901889E+001, +0.00000000000E+000
+4.95433625000E+006, -6.17758533485E+001, +0.00000000000E+000
+4.95433656250E+006, -6.18617892555E+001, +0.00000000000E+000
+4.95433687500E+006, -6.19470849905E+001, +0.00000000000E+000
+4.95433718750E+006, -6.20276025867E+001, +0.00000000000E+000
+4.95433750000E+006, -6.21024799398E+001, +0.00000000000E+000
+4.95433781250E+006, -6.21854855494E+001, +0.00000000000E+000
+4.95433812500E+006, -6.22804913994E+001, +0.00000000000E+000
+4.95433843750E+006, -6.23665704353E+001, +0.00000000000E+000
+4.95433875000E+006, -6.24456270710E+001, +0.00000000000E+000
+4.95433906250E+006, -6.25244172271E+001, +0.00000000000E+000
+4.95433937500E+006, -6.26057092375E+001, +0.00000000000E+000
+4.95433968750E+006, -6.26944299851E+001, +0.00000000000E+000
+4.95434000000E+006, -6.27836466300E+001, +0.00000000000E+000
+4.95434031250E+006, -6.28661751429E+001, +0.00000000000E+000
+4.95434062500E+006, -6.29473785318E+001, +0.00000000000E+000
+4.95434093750E+006, -6.30310046066E+001, +0.00000000000E+000
+4.95434125000E+006, -6.31204382707E+001, +0.00000000000E+000
+4.95434156250E+006, -6.32038668306E+001, +0.00000000000E+000
+4.95434187500E+006, -6.32939828985E+001, +0.00000000000E+000
+4.95434218750E+006, -6.33834839492E+001, +0.00000000000E+000
+4.95434250000E+006, -6.34722663271E+001, +0.00000000000E+000
+4.95434281250E+006, -6.35583055964E+001, +0.00000000000E+000
+4.95434312500E+006, -6.36436024027E+001, +0.00000000000E+000
+4.95434343750E+006, -6.37287140110E+001, +0.00000000000E+000
+4.95434375000E+006, -6.38247468604E+001, +0.00000000000E+000
+4.95434406250E+006, -6.39214995810E+001, +0.00000000000E+000
+4.95434437500E+006, -6.40073631885E+001, +0.00000000000E+000
+4.95434468750E+006, -6.40872522855E+001, +0.00000000000E+000
+4.95434500000E+006, -6.41786163414E+001, +0.00000000000E+000
+4.95434531250E+006, -6.42748897170E+001, +0.00000000000E+000
+4.95434562500E+006, -6.43667183400E+001, +0.00000000000E+000
+4.95434593750E+006, -6.44533111887E+001, +0.00000000000E+000
+4.95434625000E+006, -6.45398715963E+001, +0.00000000000E+000
+4.95434656250E+006, -6.46318317546E+001, +0.00000000000E+000
+4.95434687500E+006, -6.47319935947E+001, +0.00000000000E+000
+4.95434718750E+006, -6.48287573226E+001, +0.00000000000E+000
+4.95434750000E+006, -6.49146242480E+001, +0.00000000000E+000
+4.95434781250E+006, -6.50032594762E+001, +0.00000000000E+000
+4.95434812500E+006, -6.50989540782E+001, +0.00000000000E+000
+4.95434843750E+006, -6.51928531067E+001, +0.00000000000E+000
+4.95434875000E+006, -6.52830429726E+001, +0.00000000000E+000
+4.95434906250E+006, -6.53778190992E+001, +0.00000000000E+000
+4.95434937500E+006, -6.54711993209E+001, +0.00000000000E+000
+4.95434968750E+006, -6.55688551200E+001, +0.00000000000E+000
+4.95435000000E+006, -6.56717884481E+001, +0.00000000000E+000
+4.95435031250E+006, -6.57668828853E+001, +0.00000000000E+000
+4.95435062500E+006, -6.58525504929E+001, +0.00000000000E+000
+4.95435093750E+006, -6.59516983520E+001, +0.00000000000E+000
+4.95435125000E+006, -6.60523939783E+001, +0.00000000000E+000
+4.95435156250E+006, -6.61483254151E+001, +0.00000000000E+000
+4.95435187500E+006, -6.62419249029E+001, +0.00000000000E+000
+4.95435218750E+006, -6.63351550170E+001, +0.00000000000E+000
+4.95435250000E+006, -6.64307646075E+001, +0.00000000000E+000
+4.95435281250E+006, -6.65275571222E+001, +0.00000000000E+000
+4.95435312500E+006, -6.66314858353E+001, +0.00000000000E+000
+4.95435343750E+006, -6.67311140457E+001, +0.00000000000E+000
+4.95435375000E+006, -6.68327018227E+001, +0.00000000000E+000
+4.95435406250E+006, -6.69334297654E+001, +0.00000000000E+000
+4.95435437500E+006, -6.70270237949E+001, +0.00000000000E+000
+4.95435468750E+006, -6.71279846876E+001, +0.00000000000E+000
+4.95435500000E+006, -6.72396784887E+001, +0.00000000000E+000
+4.95435531250E+006, -6.73394534066E+001, +0.00000000000E+000
+4.95435562500E+006, -6.74321564927E+001, +0.00000000000E+000
+4.95435593750E+006, -6.75346353042E+001, +0.00000000000E+000
+4.95435625000E+006, -6.76400445591E+001, +0.00000000000E+000
+4.95435656250E+006, -6.77437452217E+001, +0.00000000000E+000
+4.95435687500E+006, -6.78473927341E+001, +0.00000000000E+000
+4.95435718750E+006, -6.79486687756E+001, +0.00000000000E+000
+4.95435750000E+006, -6.80436157959E+001, +0.00000000000E+000
+4.95435781250E+006, -6.81498138672E+001, +0.00000000000E+000
+4.95435812500E+006, -6.82601192378E+001, +0.00000000000E+000
+4.95435843750E+006, -6.83654393429E+001, +0.00000000000E+000
+4.95435875000E+006, -6.84644758913E+001, +0.00000000000E+000
+4.95435906250E+006, -6.85686682031E+001, +0.00000000000E+000
+4.95435937500E+006, -6.86738548660E+001, +0.00000000000E+000
+4.95435968750E+006, -6.87814487083E+001, +0.00000000000E+000
+4.95436000000E+006, -6.88933245507E+001, +0.00000000000E+000
+4.95436031250E+006, -6.89986706136E+001, +0.00000000000E+000
+4.95436062500E+006, -6.90983801130E+001, +0.00000000000E+000
+4.95436093750E+006, -6.92071956341E+001, +0.00000000000E+000
+4.95436125000E+006, -6.93204939220E+001, +0.00000000000E+000
+4.95436156250E+006, -6.94283358644E+001, +0.00000000000E+000
+4.95436187500E+006, -6.95381878377E+001, +0.00000000000E+000
+4.95436218750E+006, -6.96452144074E+001, +0.00000000000E+000
+4.95436250000E+006, -6.97522946759E+001, +0.00000000000E+000
+4.95436281250E+006, -6.98688528712E+001, +0.00000000000E+000
+4.95436312500E+006, -7.00039826191E+001, +0.00000000000E+000
+4.95436343750E+006, -7.01316647678E+001, +0.00000000000E+000
+4.95436375000E+006, -7.02389659203E+001, +0.00000000000E+000
+4.95436406250E+006, -7.03366893250E+001, +0.00000000000E+000
+4.95436437500E+006, -7.04429412913E+001, +0.00000000000E+000
+4.95436468750E+006, -7.05590655753E+001, +0.00000000000E+000
+4.95436500000E+006, -7.06827600289E+001, +0.00000000000E+000
+4.95436531250E+006, -7.08028315447E+001, +0.00000000000E+000
+4.95436562500E+006, -7.09051579294E+001, +0.00000000000E+000
+4.95436593750E+006, -7.10137807782E+001, +0.00000000000E+000
+4.95436625000E+006, -7.11300582438E+001, +0.00000000000E+000
+4.95436656250E+006, -7.12457532749E+001, +0.00000000000E+000
+4.95436687500E+006, -7.13604634689E+001, +0.00000000000E+000
+4.95436718750E+006, -7.14774389760E+001, +0.00000000000E+000
+4.95436750000E+006, -7.15869784626E+001, +0.00000000000E+000
+4.95436781250E+006, -7.17028850411E+001, +0.00000000000E+000
+4.95436812500E+006, -7.18279014379E+001, +0.00000000000E+000
+4.95436843750E+006, -7.19513482867E+001, +0.00000000000E+000
+4.95436875000E+006, -7.20679832914E+001, +0.00000000000E+000
+4.95436906250E+006, -7.21833148200E+001, +0.00000000000E+000
+4.95436937500E+006, -7.23037847164E+001, +0.00000000000E+000
+4.95436968750E+006, -7.24281326816E+001, +0.00000000000E+000
+4.95437000000E+006, -7.25529347681E+001, +0.00000000000E+000
+4.95437031250E+006, -7.26618193368E+001, +0.00000000000E+000
+4.95437062500E+006, -7.27765450022E+001, +0.00000000000E+000
+4.95437093750E+006, -7.29013278756E+001, +0.00000000000E+000
+4.95437125000E+006, -7.30278254890E+001, +0.00000000000E+000
+4.95437156250E+006, -7.31416687862E+001, +0.00000000000E+000
+4.95437187500E+006, -7.32616527936E+001, +0.00000000000E+000
+4.95437218750E+006, -7.33868880243E+001, +0.00000000000E+000
+4.95437250000E+006, -7.35140879977E+001, +0.00000000000E+000
+4.95437281250E+006, -7.36464224559E+001, +0.00000000000E+000
+4.95437312500E+006, -7.37688743387E+001, +0.00000000000E+000
+4.95437343750E+006, -7.38849219007E+001, +0.00000000000E+000
+4.95437375000E+006, -7.40138076923E+001, +0.00000000000E+000
+4.95437406250E+006, -7.41479096733E+001, +0.00000000000E+000
+4.95437437500E+006, -7.42758797856E+001, +0.00000000000E+000
+4.95437468750E+006, -7.43949002474E+001, +0.00000000000E+000
+4.95437500000E+006, -7.45273574408E+001, +0.00000000000E+000
+4.95437531250E+006, -7.46541672576E+001, +0.00000000000E+000
+4.95437562500E+006, -7.47796537343E+001, +0.00000000000E+000
+4.95437593750E+006, -7.49118815031E+001, +0.00000000000E+000
+4.95437625000E+006, -7.50414314271E+001, +0.00000000000E+000
+4.95437656250E+006, -7.51683549267E+001, +0.00000000000E+000
+4.95437687500E+006, -7.52966328601E+001, +0.00000000000E+000
+4.95437718750E+006, -7.54314166659E+001, +0.00000000000E+000
+4.95437750000E+006, -7.55640440884E+001, +0.00000000000E+000
+4.95437781250E+006, -7.56984492717E+001, +0.00000000000E+000
+4.95437812500E+006, -7.58329867160E+001, +0.00000000000E+000
+4.95437843750E+006, -7.59600734868E+001, +0.00000000000E+000
+4.95437875000E+006, -7.60941868920E+001, +0.00000000000E+000
+4.95437906250E+006, -7.62337347589E+001, +0.00000000000E+000
+4.95437937500E+006, -7.63651330541E+001, +0.00000000000E+000
+4.95437968750E+006, -7.64965562796E+001, +0.00000000000E+000
+4.95438000000E+006, -7.66378629231E+001, +0.00000000000E+000
+4.95438031250E+006, -7.67833913507E+001, +0.00000000000E+000
+4.95438062500E+006, -7.69184089625E+001, +0.00000000000E+000
+4.95438093750E+006, -7.70557066264E+001, +0.00000000000E+000
+4.95438125000E+006, -7.71903021849E+001, +0.00000000000E+000
+4.95438156250E+006, -7.73291567756E+001, +0.00000000000E+000
+4.95438187500E+006, -7.74818777475E+001, +0.00000000000E+000
+4.95438218750E+006, -7.76206106637E+001, +0.00000000000E+000
+4.95438250000E+006, -7.77505623632E+001, +0.00000000000E+000
+4.95438281250E+006, -7.78887134005E+001, +0.00000000000E+000
+4.95438312500E+006, -7.80423816079E+001, +0.00000000000E+000
+4.95438343750E+006, -7.81816297741E+001, +0.00000000000E+000
+4.95438375000E+006, -7.83180941478E+001, +0.00000000000E+000
+4.95438406250E+006, -7.84639843292E+001, +0.00000000000E+000
+4.95438437500E+006, -7.86002534455E+001, +0.00000000000E+000
+4.95438468750E+006, -7.87493355995E+001, +0.00000000000E+000
+4.95438500000E+006, -7.88978797772E+001, +0.00000000000E+000
+4.95438531250E+006, -7.90454493513E+001, +0.00000000000E+000
+4.95438562500E+006, -7.91832650218E+001, +0.00000000000E+000
+4.95438593750E+006, -7.93353315140E+001, +0.00000000000E+000
+4.95438625000E+006, -7.94811933018E+001, +0.00000000000E+000
+4.95438656250E+006, -7.96173489385E+001, +0.00000000000E+000
+4.95438687500E+006, -7.97683069900E+001, +0.00000000000E+000
+4.95438718750E+006, -7.99207623053E+001, +0.00000000000E+000
+4.95438750000E+006, -8.00747916737E+001, +0.00000000000E+000
+4.95438781250E+006, -8.02281572092E+001, +0.00000000000E+000
+4.95438812500E+006, -8.03769266314E+001, +0.00000000000E+000
+4.95438843750E+006, -8.05185536164E+001, +0.00000000000E+000
+4.95438875000E+006, -8.06660967347E+001, +0.00000000000E+000
+4.95438906250E+006, -8.08289605686E+001, +0.00000000000E+000
+4.95438937500E+006, -8.09837344299E+001, +0.00000000000E+000
+4.95438968750E+006, -8.11366430444E+001, +0.00000000000E+000
+4.95439000000E+006, -8.12882157968E+001, +0.00000000000E+000
+4.95439031250E+006, -8.14358103201E+001, +0.00000000000E+000
+4.95439062500E+006, -8.15891865927E+001, +0.00000000000E+000
+4.95439093750E+006, -8.17499962065E+001, +0.00000000000E+000
+4.95439125000E+006, -8.19112053789E+001, +0.00000000000E+000
+4.95439156250E+006, -8.20593904150E+001, +0.00000000000E+000
+4.95439187500E+006, -8.22158997293E+001, +0.00000000000E+000
+4.95439218750E+006, -8.23768723631E+001, +0.00000000000E+000
+4.95439250000E+006, -8.25298874603E+001, +0.00000000000E+000
+4.95439281250E+006, -8.26892611653E+001, +0.00000000000E+000
+4.95439312500E+006, -8.28566121542E+001, +0.00000000000E+000
+4.95439343750E+006, -8.30111558609E+001, +0.00000000000E+000
+4.95439375000E+006, -8.31716834268E+001, +0.00000000000E+000
+4.95439406250E+006, -8.33402125528E+001, +0.00000000000E+000
+4.95439437500E+006, -8.35026369719E+001, +0.00000000000E+000
+4.95439468750E+006, -8.36609071852E+001, +0.00000000000E+000
+4.95439500000E+006, -8.38296979092E+001, +0.00000000000E+000
