"# Channel 1"
"# Trace 1"
Frequency, Formatted Data, Formatted Data
+4.95404500000E+006, +2.83115636360E-001, +0.00000000000E+000
+4.95405000000E+006, +2.83426150416E-001, +0.00000000000E+000
+4.95405500000E+006, +2.83316676264E-001, +0.00000000000E+000
+4.95406000000E+006, +2.83227567479E-001, +0.00000000000E+000
+4.95406500000E+006, +2.83100100677E-001, +0.00000000000E+000
+4.95407000000E+006, +2.82991983460E-001, +0.00000000000E+000
+4.95407500000E+006, +2.82872684319E-001, +0.00000000000E+000
+4.95408000000E+006, +2.82759440172E-001, +0.00000000000E+000
+4.95408500000E+006, +2.82632033886E-001, +0.00000000000E+000
+4.95409000000E+006, +2.82514801747E-001, +0.00000000000E+000
+4.95409500000E+006, +2.82405839078E-001, +0.00000000000E+000
+4.95410000000E+006, +2.82289885377E-001, +0.00000000000E+000
+4.95410500000E+006, +2.82154681086E-001, +0.00000000000E+000
+4.95411000000E+006, +2.82025155173E-001, +0.00000000000E+000
+4.95411500000E+006, +2.81898670221E-001, +0.00000000000E+000
+4.95412000000E+006, +2.81793837708E-001, +0.00000000000E+000
+4.95412500000E+006, +2.81664753630E-001, +0.00000000000E+000
+4.95413000000E+006, +2.81523376155E-001, +0.00000000000E+000
+4.95413500000E+006, +2.81396861810E-001, +0.00000000000E+000
+4.95414000000E+006, +2.81275261205E-001, +0.00000000000E+000
+4.95414500000E+006, +2.81148651067E-001, +0.00000000000E+000
+4.95415000000E+006, +2.80997519518E-001, +0.00000000000E+000
+4.95415500000E+006, +2.80870077335E-001, +0.00000000000E+000
+4.95416000000E+006, +2.80717953755E-001, +0.00000000000E+000
+4.95416500000E+006, +2.80580597115E-001, +0.00000000000E+000
+4.95417000000E+006, +2.80431463033E-001, +0.00000000000E+000
+4.95417500000E+006, +2.80281657180E-001, +0.00000000000E+000
+4.95418000000E+006, +2.80134551026E-001, +0.00000000000E+000
+4.95418500000E+006, +2.79966849537E-001, +0.00000000000E+000
+4.95419000000E+006, +2.79848031662E-001, +0.00000000000E+000
+4.95419500000E+006, +2.79696619139E-001, +0.00000000000E+000
+4.95420000000E+006, +2.79529179470E-001, +0.00000000000E+000
+4.95420500000E+006, +2.79365693130E-001, +0.00000000000E+000
+4.95421000000E+006, +2.79197825178E-001, +0.00000000000E+000
+4.95421500000E+006, +2.79051971012E-001, +0.00000000000E+000
+4.95422000000E+006, +2.78890265205E-001, +0.00000000000E+000
+4.95422500000E+006, +2.78728634757E-001, +0.00000000000E+000
+4.95423000000E+006, +2.78556038097E-001, +0.00000000000E+000
+4.95423500000E+006, +2.78414872986E-001, +0.00000000000E+000
+4.95424000000E+006, +2.78206253314E-001, +0.00000000000E+000
+4.95424500000E+006, +2.78027430808E-001, +0.00000000000E+000
+4.95425000000E+006, +2.77864966555E-001, +0.00000000000E+000
+4.95425500000E+006, +2.77705916790E-001, +0.00000000000E+000
+4.95426000000E+006, +2.77517880727E-001, +0.00000000000E+000
+4.95426500000E+006, +2.77342051417E-001, +0.00000000000E+000
+4.95427000000E+006, +2.77199973257E-001, +0.00000000000E+000
+4.95427500000E+006, +2.77048516860E-001, +0.00000000000E+000
+4.95428000000E+006, +2.76900218588E-001, +0.00000000000E+000
+4.95428500000E+006, +2.76742526427E-001, +0.00000000000E+000
+4.95429000000E+006, +2.76596482051E-001, +0.00000000000E+000
+4.95429500000E+006, +2.76464564946E-001, +0.00000000000E+000
+4.95430000000E+006, +2.76342430277E-001, +0.00000000000E+000
+4.95430500000E+006, +2.76214058207E-001, +0.00000000000E+000
+4.95431000000E+006, +2.76100751289E-001, +0.00000000000E+000
+4.95431500000E+006, +2.75991877922E-001, +0.00000000000E+000
+4.95432000000E+006, +2.75898699855E-001, +0.00000000000E+000
+4.95432500000E+006, +2.75810159895E-001, +0.00000000000E+000
+4.95433000000E+006, +2.75753229938E-001, +0.00000000000E+000
+4.95433500000E+006, +2.75710765124E-001, +0.00000000000E+000
+4.95434000000E+006, +2.75712858932E-001, +0.00000000000E+000
+4.95434500000E+006, +2.75742156868E-001, +0.00000000000E+000
+4.95435000000E+006, +2.75788724512E-001, +0.00000000000E+000
+4.95435500000E+006, +2.75868982719E-001, +0.00000000000E+000
+4.95436000000E+006, +2.76009152404E-001, +0.00000000000E+000
+4.95436500000E+006, +2.76205575472E-001, +0.00000000000E+000
+4.95437000000E+006, +2.76462072694E-001, +0.00000000000E+000
+4.95437500000E+006, +2.76780170017E-001, +0.00000000000E+000
+4.95438000000E+006, +2.77181413716E-001, +0.00000000000E+000
+4.95438500000E+006, +2.77655234787E-001, +0.00000000000E+000
+4.95439000000E+006, +2.78221675088E-001, +0.00000000000E+000
+4.95439500000E+006, +2.78921363773E-001, +0.00000000000E+000
+4.95440000000E+006, +2.79725212223E-001, +0.00000000000E+000
+4.95440500000E+006, +2.80671627404E-001, +0.00000000000E+000
+4.95441000000E+006, +2.81785315042E-001, +0.00000000000E+000
+4.95441500000E+006, +2.83103268279E-001, +0.00000000000E+000
+4.95442000000E+006, +2.84632399423E-001, +0.00000000000E+000
+4.95442500000E+006, +2.86431230105E-001, +0.00000000000E+000
+4.95443000000E+006, +2.88552081635E-001, +0.00000000000E+000
+4.95443500000E+006, +2.90978776239E-001, +0.00000000000E+000
+4.95444000000E+006, +2.93809714978E-001, +0.00000000000E+000
+4.95444500000E+006, +2.97072567215E-001, +0.00000000000E+000
+4.95445000000E+006, +3.00842567741E-001, +0.00000000000E+000
+4.95445500000E+006, +3.05175193793E-001, +0.00000000000E+000
+4.95446000000E+006, +3.10141994663E-001, +0.00000000000E+000
+4.95446500000E+006, +3.15795240998E-001, +0.00000000000E+000
+4.95447000000E+006, +3.22183802311E-001, +0.00000000000E+000
+4.95447500000E+006, +3.29345003613E-001, +0.00000000000E+000
+4.95448000000E+006, +3.37324810104E-001, +0.00000000000E+000
+4.95448500000E+006, +3.46107100030E-001, +0.00000000000E+000
+4.95449000000E+006, +3.55643361705E-001, +0.00000000000E+000
+4.95449500000E+006, +3.65871581841E-001, +0.00000000000E+000
+4.95450000000E+006, +3.76623101130E-001, +0.00000000000E+000
+4.95450500000E+006, +3.87688547799E-001, +0.00000000000E+000
+4.95451000000E+006, +3.98806476500E-001, +0.00000000000E+000
+4.95451500000E+006, +4.09684110054E-001, +0.00000000000E+000
+4.95452000000E+006, +4.19947624320E-001, +0.00000000000E+000
+4.95452500000E+006, +4.29226546355E-001, +0.00000000000E+000
+4.95453000000E+006, +4.37156910156E-001, +0.00000000000E+000
+4.95453500000E+006, +4.43428583212E-001, +0.00000000000E+000
+4.95454000000E+006, +4.47821280818E-001, +0.00000000000E+000
+4.95454500000E+006, +4.50272854401E-001, +0.00000000000E+000
+4.95455000000E+006, +4.50831801926E-001, +0.00000000000E+000
+4.95455500000E+006, +4.49654178460E-001, +0.00000000000E+000
+4.95456000000E+006, +4.47023042662E-001, +0.00000000000E+000
+4.95456500000E+006, +4.43242729556E-001, +0.00000000000E+000
+4.95457000000E+006, +4.38649016903E-001, +0.00000000000E+000
+4.95457500000E+006, +4.33519333741E-001, +0.00000000000E+000
+4.95458000000E+006, +4.28089440256E-001, +0.00000000000E+000
+4.95458500000E+006, +4.22553098198E-001, +0.00000000000E+000
+4.95459000000E+006, +4.17035089717E-001, +0.00000000000E+000
+4.95459500000E+006, +4.11633265122E-001, +0.00000000000E+000
+4.95460000000E+006, +4.06427586221E-001, +0.00000000000E+000
+4.95460500000E+006, +4.01427612568E-001, +0.00000000000E+000
+4.95461000000E+006, +3.96680340712E-001, +0.00000000000E+000
+4.95461500000E+006, +3.92195294850E-001, +0.00000000000E+000
+4.95462000000E+006, +3.87962880180E-001, +0.00000000000E+000
+4.95462500000E+006, +3.83969918119E-001, +0.00000000000E+000
+4.95463000000E+006, +3.80221829542E-001, +0.00000000000E+000
+4.95463500000E+006, +3.76715458222E-001, +0.00000000000E+000
+4.95464000000E+006, +3.73444025508E-001, +0.00000000000E+000
+4.95464500000E+006, +3.70366327906E-001, +0.00000000000E+000
+4.95465000000E+006, +3.67494550147E-001, +0.00000000000E+000
+4.95465500000E+006, +3.64804347338E-001, +0.00000000000E+000
+4.95466000000E+006, +3.62296373880E-001, +0.00000000000E+000
+4.95466500000E+006, +3.59921771865E-001, +0.00000000000E+000
+4.95467000000E+006, +3.57708490105E-001, +0.00000000000E+000
+4.95467500000E+006, +3.55634030243E-001, +0.00000000000E+000
+4.95468000000E+006, +3.53680676614E-001, +0.00000000000E+000
+4.95468500000E+006, +3.51828921450E-001, +0.00000000000E+000
+4.95469000000E+006, +3.50090219180E-001, +0.00000000000E+000
+4.95469500000E+006, +3.48428935435E-001, +0.00000000000E+000
+4.95470000000E+006, +3.46857954093E-001, +0.00000000000E+000
+4.95470500000E+006, +3.45376099483E-001, +0.00000000000E+000
+4.95471000000E+006, +3.43970195121E-001, +0.00000000000E+000
+4.95471500000E+006, +3.42641217166E-001, +0.00000000000E+000
+4.95472000000E+006, +3.41359595935E-001, +0.00000000000E+000
+4.95472500000E+006, +3.40149231463E-001, +0.00000000000E+000
+4.95473000000E+006, +3.38991394722E-001, +0.00000000000E+000
+4.95473500000E+006, +3.37881175644E-001, +0.00000000000E+000
+4.95474000000E+006, +3.36836268865E-001, +0.00000000000E+000
+4.95474500000E+006, +3.35842615578E-001, +0.00000000000E+000
+4.95475000000E+006, +3.34876441114E-001, +0.00000000000E+000
+4.95475500000E+006, +3.33966598467E-001, +0.00000000000E+000
+4.95476000000E+006, +3.33090148201E-001, +0.00000000000E+000
+4.95476500000E+006, +3.32249583521E-001, +0.00000000000E+000
+4.95477000000E+006, +3.31457999060E-001, +0.00000000000E+000
+4.95477500000E+006, +3.30696561689E-001, +0.00000000000E+000
+4.95478000000E+006, +3.29973424480E-001, +0.00000000000E+000
+4.95478500000E+006, +3.29266103576E-001, +0.00000000000E+000
+4.95479000000E+006, +3.28587860867E-001, +0.00000000000E+000
+4.95479500000E+006, +3.27923188326E-001, +0.00000000000E+000
+4.95480000000E+006, +3.27290206024E-001, +0.00000000000E+000
+4.95480500000E+006, +3.26698657912E-001, +0.00000000000E+000
+4.95481000000E+006, +3.26118250672E-001, +0.00000000000E+000
+4.95481500000E+006, +3.25558137682E-001, +0.00000000000E+000
+4.95482000000E+006, +3.25041818305E-001, +0.00000000000E+000
+4.95482500000E+006, +3.24514837641E-001, +0.00000000000E+000
+4.95483000000E+006, +3.23998154805E-001, +0.00000000000E+000
+4.95483500000E+006, +3.23516376619E-001, +0.00000000000E+000
+4.95484000000E+006, +3.23045661874E-001, +0.00000000000E+000
+4.95484500000E+006, +3.22569449373E-001, +0.00000000000E+000
+4.95485000000E+006, +3.22160162161E-001, +0.00000000000E+000
+4.95485500000E+006, +3.21715308393E-001, +0.00000000000E+000
+4.95486000000E+006, +3.21298955004E-001, +0.00000000000E+000
+4.95486500000E+006, +3.20887533051E-001, +0.00000000000E+000
+4.95487000000E+006, +3.20502045870E-001, +0.00000000000E+000
+4.95487500000E+006, +3.20121688772E-001, +0.00000000000E+000
+4.95488000000E+006, +3.19766177582E-001, +0.00000000000E+000
+4.95488500000E+006, +3.19405106637E-001, +0.00000000000E+000
+4.95489000000E+006, +3.19064716176E-001, +0.00000000000E+000
+4.95489500000E+006, +3.18727833049E-001, +0.00000000000E+000
+4.95490000000E+006, +3.18407472251E-001, +0.00000000000E+000
+4.95490500000E+006, +3.18091562913E-001, +0.00000000000E+000
+4.95491000000E+006, +3.17776785011E-001, +0.00000000000E+000
+4.95491500000E+006, +3.17503189092E-001, +0.00000000000E+000
+4.95492000000E+006, +3.17173449609E-001, +0.00000000000E+000
+4.95492500000E+006, +3.16886738800E-001, +0.00000000000E+000
+4.95493000000E+006, +3.16619289376E-001, +0.00000000000E+000
+4.95493500000E+006, +3.16344513784E-001, +0.00000000000E+000
+4.95494000000E+006, +3.16082468627E-001, +0.00000000000E+000
+4.95494500000E+006, +3.15832388488E-001, +0.00000000000E+000
+4.95495000000E+006, +3.15589735814E-001, +0.00000000000E+000
+4.95495500000E+006, +3.15337170501E-001, +0.00000000000E+000
+4.95496000000E+006, +3.15097641129E-001, +0.00000000000E+000
+4.95496500000E+006, +3.14862630254E-001, +0.00000000000E+000
+4.95497000000E+006, +3.14635269081E-001, +0.00000000000E+000
+4.95497500000E+006, +3.14409937620E-001, +0.00000000000E+000
+4.95498000000E+006, +3.14202555319E-001, +0.00000000000E+000
+4.95498500000E+006, +3.13999675736E-001, +0.00000000000E+000
+4.95499000000E+006, +3.13753363503E-001, +0.00000000000E+000
+4.95499500000E+006, +3.13559791879E-001, +0.00000000000E+000
+4.95500000000E+006, +3.13361112327E-001, +0.00000000000E+000
+4.95500500000E+006, +3.13165452481E-001, +0.00000000000E+000
+4.95501000000E+006, +3.12996792485E-001, +0.00000000000E+000
+4.95501500000E+006, +3.12808770325E-001, +0.00000000000E+000
+4.95502000000E+006, +3.12624377476E-001, +0.00000000000E+000
+4.95502500000E+006, +3.12458292229E-001, +0.00000000000E+000
+4.95503000000E+006, +3.12279512509E-001, +0.00000000000E+000
+4.95503500000E+006, +3.12103739769E-001, +0.00000000000E+000
+4.95504000000E+006, +3.11944028005E-001, +0.00000000000E+000
+4.95504500000E+006, +3.11798250650E-001, +0.00000000000E+000
